15.85292912	3.43137264
15.85703278	4.43137264
15.86116219	2.39215684
15.86521721	3.03921580
15.86521721	4.96078444
15.86929703	4.05882359
15.87338448	3.35294127
15.87759495	3.80392146
15.87759495	3.80392146
15.88162518	2.15686274
15.88566399	3.54901958
15.88979340	4.98039198
15.88979340	3.33333325
15.89393806	3.03921580
15.89796829	3.74509811
15.90205669	1.96078432
15.90615273	3.74509811
15.91029739	4.11764717
15.91029739	2.60784316
15.91431141	2.66666675
15.91842365	3.37254906
15.92258549	1.29411769
15.92258549	1.94117641
15.92673111	3.78431368
15.93074512	2.78431368
15.93520927	2.07843137
15.93520927	2.52941179
15.93896961	2.49019599
15.94304943	0.96078432
15.94711208	3.94117641
15.95119190	2.33333325
15.95530415	2.03921580
15.95530415	2.76470590
15.95940876	1.50980389
15.96351242	1.15686274
15.96763325	2.96078420
15.96763325	3.23529410
15.97172928	1.82352936
15.97606277	1.90196073
15.97998714	2.64705873
15.97998714	0.60784316
15.98450851	1.29411769
15.98831844	3.09803915
15.99222565	1.49019611
15.99669838	1.90196073
16.00090981	1.80392158
16.00090981	0.47058824
16.00457191	1.94117641
16.00854492	3.35294127
16.01265717	1.80392158
16.01265717	1.54901958
16.01672745	2.31372547
16.02083969	0.90196079
16.02525520	0.56862748
16.02525520	2.35294127
16.02928734	2.49019599
16.03325081	1.15686274
16.03731537	2.09803915
16.04138565	0.13725491
16.04562187	0.96078432
16.04562187	2.84313726
16.04957771	1.82352936
16.05379677	1.23529410
16.05874443	1.68627453
16.05874443	1.43137252
16.06209564	0.13725491
16.06600380	1.66666663
16.06999207	3.03921580
16.06999207	1.54901958
16.07413673	1.43137252
16.07823372	2.35294127
16.08227158	1.03921568
16.08667183	3.01960778
16.09066963	3.25490189
16.09066963	2.05882359
16.09485435	2.29411769
16.09887695	3.00000000
16.10276794	1.03921568
16.10276794	1.84313726
16.10808563	3.68627453
16.11137009	2.56862736
16.11621094	1.98039210
16.11621094	2.45098042
16.11965179	2.19607854
16.12433052	0.90196079
16.12737656	3.74509811
16.13142395	2.13725495
16.13552856	2.03921580
16.13552856	3.00000000
16.13964081	1.66666663
16.14372826	1.66666663
16.14785767	3.72549009
16.14785767	3.80392146
16.15189552	2.68627453
16.15596008	2.94117641
16.16011238	3.62745094
16.16011238	1.64705884
16.16415977	2.60784316
16.16827965	4.49019623
16.16827965	3.27450991
16.17238426	2.70588231
16.17660332	3.11764717
16.18116570	2.58823538
16.18116570	1.21568632
16.18521309	2.66666675
16.18887520	3.70588231
16.19288826	1.94117641
16.19288826	1.64705884
16.19696808	2.41176462
16.20112228	0.78431374
16.20523453	0.68627453
16.20523453	2.52941179
16.20928192	2.47058821
16.21358109	0.98039216
16.21358109	1.66666663
16.21776009	2.96078420
16.22183990	0.52941179
16.22596741	1.86274505
16.22596741	4.05882359
16.22988319	1.90196073
16.23439026	1.00000000
16.23827171	1.66666663
16.23827171	1.00000000
16.24272156	0.00000000
16.24621964	1.66666663
16.25035477	3.19607854
16.25035477	0.92156863
16.25436974	0.80392158
16.25854683	2.15686274
16.25854683	0.05882353
16.26252937	0.29411766
16.26664162	3.01960778
16.27072906	2.92156863
16.27072906	1.47058821
16.27512741	2.03921580
16.27905273	2.98039222
16.28331947	0.47058824
16.28331947	2.13725495
16.28735161	4.82352924
16.29150391	3.01960778
16.29556656	2.47058821
16.29556656	3.45098042
16.29949188	2.70588231
16.30418587	1.23529410
16.30418587	3.70588231
16.30763435	4.98039198
16.31210709	2.70588231
16.31587601	2.50980401
16.31587601	3.78431368
16.31993103	1.29411769
16.32397652	1.54901958
16.32815552	4.19607830
16.32815552	3.72549009
16.33217812	2.21568632
16.33643723	2.72549009
16.34067345	0.56862748
16.34468651	2.17647052
16.34881592	4.66666651
16.34881592	2.41176462
16.35279655	1.80392158
16.35688400	2.74509811
16.36120224	1.72549021
16.36120224	0.23529412
16.36582947	2.68627453
16.36967278	3.94117641
16.37439919	1.31372547
16.37439919	1.15686274
16.37726593	2.60784316
16.38134575	0.00000000
16.38544273	2.88235283
16.38950539	1.98039210
16.39369202	0.27450982
16.39369202	0.92156863
16.39772224	1.60784316
16.40179253	0.00000000
16.40605354	0.70588237
16.40605354	3.43137264
16.40999413	0.80392158
16.41441727	0.25490198
16.41849709	1.50980389
16.41849709	0.11764706
16.42256737	0.00000000
16.42686081	1.68627453
16.43105507	0.25490198
16.43500328	0.35294119
16.43874741	2.17647052
16.43874741	0.00000000
16.44287682	0.00000000
16.44685745	3.23529410
16.45100212	2.19607854
16.45100212	0.78431374
16.45506477	1.84313726
16.45921135	2.56862736
16.46359253	0.00000000
16.46359253	2.11764717
16.46750069	4.98039198
16.47144890	2.49019599
16.47583961	3.76470590
16.48033714	2.72549009
16.48409843	1.43137252
16.48409843	4.78431368
16.48826027	4.98039198
16.49265862	3.60784316
16.49668884	3.80392146
16.49668884	4.98039198
16.50063705	2.49019599
16.50426674	3.49019599
16.50836182	4.98039198
16.50836182	4.98039198
16.51240158	4.66666651
16.51650620	4.98039198
16.52060127	2.86274505
16.52498436	4.98039198
16.53128433	4.98039198
16.53128433	4.98039198
16.53288078	4.74509811
16.53696060	4.98039198
16.54111481	4.19607830
16.54111481	3.17647052
16.54520226	4.98039198
16.54928207	4.98039198
16.55341148	4.25490189
16.55341148	4.31372547
16.55748177	4.98039198
16.56160164	2.47058821
16.56573105	4.98039198
16.56978607	4.68627453
16.57384872	3.25490189
16.57384872	3.86274505
16.57796288	3.90196085
16.58203316	1.15686274
16.58614540	3.27450991
16.58614540	4.98039198
16.59052849	2.74509811
16.59469032	2.21568632
16.59872055	3.19607854
16.59872055	1.29411769
16.60281563	0.29411766
16.60692024	2.94117641
16.61104965	1.03921568
16.61542320	1.03921568
16.61943817	2.33333325
16.61943817	0.00000000
16.62353325	0.13725491
16.62722778	2.96078420
16.63128281	1.45098042
16.63128281	0.21568628
16.63529778	1.00000000
16.63940239	1.13725495
16.64351463	0.00000000
16.64351463	1.19607842
16.64761925	3.76470590
16.65170670	1.47058821
16.65576935	2.86274505
16.65984154	1.35294116
16.66428185	0.80392158
16.66428185	3.78431368
16.66818810	4.49019623
16.67262077	2.31372547
16.67701149	2.62745094
16.67701149	4.13725471
16.68050957	1.23529410
16.68504715	2.50980401
16.68861961	4.98039198
16.68861961	4.17647076
16.69268227	3.21568632
16.69674683	4.01960802
16.69674683	4.05882359
16.70082474	1.74509799
16.70492935	4.07843161
16.70905113	4.98039198
16.70905113	3.82352948
16.71347427	3.58823538
16.71747971	4.82352924
16.72157669	3.03921580
16.72157669	2.50980401
16.72560692	4.98039198
16.72978401	4.98039198
16.73464966	3.50980401
16.73464966	3.70588231
16.73835373	4.94117641
16.74242401	1.90196073
16.74242401	3.03921580
16.74597168	4.98039198
16.75058365	4.33333349
16.75420380	3.31372547
16.75420380	4.03921556
16.75821877	3.84313726
16.76228142	1.50980389
16.76640320	3.68627453
16.76640320	4.98039198
16.77047348	3.00000000
16.77478218	2.62745094
16.77872276	3.64705873
16.77872276	1.64705884
16.78299904	1.07843137
16.78712082	3.74509811
16.78712082	4.01960802
16.79120827	1.76470590
16.79528809	1.92156863
16.79983330	3.01960778
16.79983330	0.00000000
16.80367661	1.01960790
16.80760765	3.72549009
16.81146622	2.05882359
16.81146622	1.07843137
16.81561279	1.82352936
16.81974030	1.56862748
16.82375526	0.00000000
16.82375526	1.68627453
16.82783508	3.72549009
16.83194733	1.19607842
16.83194733	0.94117647
16.83606720	2.07843137
16.84038544	0.11764706
16.84430122	0.00000000
16.84430122	2.54901958
16.84842873	2.80392146
16.85240173	0.84313726
16.85650635	1.23529410
16.85650635	2.43137264
16.86061859	0.00000000
16.86473846	0.92156863
16.86901474	2.13725495
16.87313652	1.41176474
16.87706757	2.23529410
16.87706757	1.90196073
16.88116455	0.00000000
16.88521194	2.35294127
16.88928986	4.35294104
16.88928986	1.84313726
16.89337921	1.70588231
16.89749146	3.03921580
16.90167618	1.03921568
16.90167618	0.80392158
16.90572357	3.58823538
16.90973854	3.86274505
16.91388321	2.64705873
16.91819191	3.84313726
16.92259216	1.17647064
16.92259216	2.80392146
16.92617035	4.98039198
16.93030739	4.11764717
16.93493652	3.52941179
16.93493652	4.54901981
16.93860626	4.09803915
16.94257927	2.23529410
16.94674110	4.50980377
16.94674110	4.98039198
16.95070648	3.70588231
16.95480156	3.49019599
16.95897102	2.31372547
16.96300316	2.05882359
16.96722984	4.62745094
16.96722984	4.60784292
16.97121811	2.74509811
16.97560120	3.21568632
16.97941971	4.07843161
16.97941971	1.27450979
16.98350716	2.58823538
16.98882294	4.98039198
16.99255943	3.31372547
16.99255943	2.56862736
16.99626160	3.35294127
17.00084877	2.60784316
17.00403595	2.80392146
17.00812340	4.35294104
17.01220322	1.82352936
17.01220322	1.62745094
17.01625061	2.78431368
17.02034569	0.50980395
17.02455711	0.39215687
17.02455711	2.88235283
17.02857208	2.72549009
17.03263474	1.01960790
17.03680420	1.58823526
17.03680420	2.37254906
17.04084206	0.00000000
17.04500389	1.05882359
17.04904366	1.76470590
17.05313873	1.11764705
17.05725098	2.01960778
17.05725098	0.00000000
17.06133080	0.00000000
17.06541824	0.00000000
17.06957245	0.00000000
17.06957245	0.00000000
17.07360268	0.00000000
17.07772255	0.00000000
17.08177757	0.00000000
17.08177757	0.00000000
17.08585739	0.00000000
17.09020042	0.00000000
17.09418106	0.37254903
17.09842491	0.00000000
17.10254478	0.00000000
17.10254478	0.00000000
17.10662460	0.05882353
17.11055756	0.00000000
17.11585617	0.00000000
17.11585617	2.52941179
17.11922455	0.00000000
17.12369728	0.37254903
17.12694931	1.00000000
17.12694931	1.31372547
17.13154411	0.00000000
17.13565636	1.58823526
17.13921165	2.94117641
17.14331627	4.00000000
17.14731407	4.98039198
17.14731407	4.98039198
17.15142632	4.78431368
17.15552330	4.98039198
17.15991402	4.98039198
17.15991402	3.52941179
17.16400909	4.96078444
17.16808128	4.98039198
17.17217636	4.98039198
17.17217636	4.41176462
17.17626381	4.98039198
17.18165588	4.05882359
17.18165588	2.47058821
17.18575859	4.58823538
17.18927383	4.98039198
17.19309998	3.35294127
17.19309998	3.13725495
17.19715500	4.39215708
17.20061111	1.94117641
17.20472336	2.07843137
17.20472336	4.49019623
17.20873833	3.92156863
17.21285820	2.33333325
17.21697807	2.84313726
17.21697807	3.31372547
17.22115707	0.72549021
17.22548294	2.35294127
17.22548294	4.66666651
17.22936440	2.56862736
17.23364067	1.98039210
17.23745918	2.86274505
17.23745918	1.86274505
17.24156380	0.56862748
17.24570847	3.01960778
17.24977112	4.43137264
17.24977112	2.23529410
17.25388336	2.23529410
17.25791359	3.56862736
17.26201820	1.07843137
17.26201820	1.41176474
17.26613045	3.88235283
17.27026749	3.23529410
17.27026749	1.82352936
17.27462578	2.31372547
17.27869797	2.78431368
17.28253937	0.15686275
17.28253937	1.88235295
17.28692245	4.19607830
17.29099274	2.05882359
17.29510689	1.56862748
17.29510689	2.54901958
17.29917717	1.50980389
17.30314255	0.35294119
17.30731201	2.80392146
17.30731201	4.01960802
17.31138420	1.82352936
17.31542206	1.86274505
17.31542206	3.19607854
17.31945229	0.68627453
17.32354927	1.11764705
17.32767677	3.72549009
17.32767677	2.98039222
17.33174896	1.62745094
17.33577156	2.25490189
17.33986664	2.56862736
17.33986664	0.09803922
17.34400368	1.84313726
17.34807587	4.15686274
17.35246658	2.07843137
17.35246658	1.70588231
17.35653877	2.74509811
17.36033821	1.64705884
17.36033821	0.74509805
17.36475372	3.23529410
17.36873627	4.50980377
17.37301254	2.47058821
17.37301254	2.64705873
17.37694359	4.03921556
17.38121986	1.58823526
17.38522530	2.11764717
17.38522530	4.58823538
17.38900185	3.74509811
17.39323044	2.39215684
17.39718628	3.17647052
17.40126610	0.76470590
17.40538597	2.47058821
17.40538597	4.64705896
17.40952301	2.37254906
17.41393089	1.94117641
17.41800308	2.84313726
17.41800308	1.49019611
17.42204857	0.52941179
17.42617035	2.84313726
17.43027496	3.84313726
17.43027496	1.70588231
17.43576241	1.86274505
17.43917084	2.98039222
17.44337273	1.35294116
17.44763374	3.90196085
17.45134354	3.01960778
17.45134354	1.88235295
17.45465279	2.64705873
17.45870018	0.00000000
17.46274757	0.00000000
17.46274757	0.00000000
17.46685982	0.00000000
17.47099686	0.00000000
17.47506714	0.00000000
17.47506714	1.33333337
17.47918892	0.00000000
17.48325157	0.00000000
17.48734856	0.00000000
17.49141884	0.00000000
17.49563026	1.07843137
17.49563026	0.03921569
17.49967575	0.00000000
17.50374794	1.11764705
17.50790215	1.72549021
17.50790215	0.72549021
17.51196480	1.15686274
17.51603699	3.70588231
17.52016449	0.00000000
17.52016449	1.52941179
17.52421951	2.15686274
17.52831650	2.64705873
17.53241920	2.60784316
17.53651619	4.98039198
17.54061127	0.86274511
17.54061127	3.15686274
17.54472542	3.68627453
17.54906654	3.64705873
17.55319595	2.66666675
17.55319595	4.47058821
17.55728340	3.49019599
17.56105995	2.43137264
17.56561470	3.82352948
17.56561470	4.29411745
17.56967735	2.94117641
17.57382202	3.17647052
17.57759094	2.58823538
17.58194160	3.86274505
17.58574104	4.98039198
17.58574104	4.98039198
17.58971405	4.05882359
17.59381104	4.66666651
17.59796524	4.98039198
17.59796524	4.13725471
17.60205269	4.60784292
17.60626221	4.98039198
17.61019516	4.98039198
17.61019516	4.66666651
17.61463547	4.98039198
17.61871529	4.98039198
17.62279510	4.98039198
17.62720108	4.98039198
17.63155937	4.98039198
17.63155937	4.88235283
17.63568878	4.98039198
17.64016914	4.98039198
17.64385605	2.72549009
17.64385605	4.50980377
17.64768982	4.98039198
17.65173721	3.62745094
17.65535736	3.13725495
17.65535736	3.96078420
17.65936279	2.09803915
17.66345978	1.50980389
17.66758728	4.31372547
17.67167664	2.37254906
17.67591095	2.62745094
17.67591095	3.74509811
17.68010521	1.07843137
17.68420219	2.11764717
17.68837166	4.54901981
17.68837166	3.23529410
17.69241714	2.37254906
17.69693184	3.13725495
17.70113373	2.88235283
17.70113373	0.94117647
17.70518112	2.88235283
17.70957947	4.74509811
17.70957947	2.45098042
17.71325111	2.19607854
17.71737099	3.23529410
17.72154808	1.52941179
17.72154808	1.11764705
17.72498894	3.45098042
17.72904396	3.76470590
17.73309898	1.82352936
17.73309898	2.13725495
17.73722839	3.15686274
17.74130821	0.56862748
17.74545288	1.66666663
17.74545288	4.11764717
17.74979401	2.72549009
17.75389862	1.86274505
17.75389862	2.64705873
17.75800323	2.35294127
17.76196861	0.54901963
17.76613045	2.52941179
17.76613045	4.31372547
17.77073288	2.00000000
17.77493668	1.70588231
17.77851677	2.76470590
17.77851677	0.92156863
17.78346443	0.60784316
17.78758430	3.01960778
17.79170418	3.25490189
17.79170418	1.43137252
17.79494095	1.80392158
17.79926682	2.80392146
17.79926682	0.19607843
17.80278015	1.39215684
17.80685997	3.84313726
17.81092262	2.37254906
17.81092262	1.64705884
17.81505203	2.43137264
17.81913185	2.01960778
17.82326126	0.31372550
17.82326126	2.35294127
17.82734871	4.01960802
17.83175659	1.80392158
17.83585167	1.60784316
17.83585167	2.70588231
17.83977509	0.82352942
17.84375763	0.60784316
17.84375763	3.03921580
17.84779549	3.13725495
17.85186768	1.43137252
17.85597992	1.74509799
17.85597992	2.64705873
17.86015701	0.11764706
17.86422920	1.33333337
17.86833382	3.64705873
17.86833382	2.09803915
17.87237167	1.37254906
17.87651634	2.15686274
17.88058090	1.66666663
17.88058090	0.05882353
17.88466835	2.11764717
17.88879585	3.72549009
17.88879585	1.49019611
17.89316368	1.25490201
17.89726639	2.33333325
17.90113449	0.29411766
17.90113449	0.15686275
17.90539360	2.47058821
17.90951347	2.43137264
17.91372490	0.72549021
17.91372490	1.07843137
17.91780472	1.92156863
17.92191696	0.00000000
17.92578316	3.07843137
17.92976570	1.54901958
17.93385315	0.94117647
17.93385315	1.70588231
17.93794060	1.21568632
17.94204521	0.00000000
17.94618225	1.98039210
17.94618225	3.50980401
17.95028496	1.45098042
17.95434952	1.37254906
17.95870781	2.60784316
17.95870781	0.68627453
17.96276283	0.76470590
17.96685028	3.21568632
17.97184753	1.56862748
17.97546005	2.01960778
17.97901535	2.78431368
17.97901535	0.35294119
17.98307037	1.70588231
17.98733902	4.01960802
17.99127769	2.39215684
17.99127769	1.78431368
17.99526787	2.58823538
17.99938011	2.01960778
18.00348473	0.68627453
18.00348473	2.86274505
18.00757980	4.39215708
18.01179123	2.23529410
18.01601791	3.39215684
18.02015495	1.39215684
18.02428436	1.54901958
18.02428436	4.03921556
18.02820778	3.84313726
18.03263092	2.37254906
18.03691673	2.84313726
18.03691673	3.56862736
18.04050446	1.15686274
18.04453468	2.54901958
18.04854965	4.82352924
18.04854965	3.17647052
18.05261993	2.52941179
18.05672455	3.31372547
18.06096840	1.13725495
18.06493378	3.15686274
18.06902885	4.43137264
18.06902885	2.19607854
18.07342720	2.00000000
18.07724571	3.15686274
18.08164406	1.00000000
18.08164406	1.21568632
18.08540535	3.64705873
18.08959007	3.37254906
18.09361267	1.98039210
18.09361267	2.50980401
18.09837341	3.15686274
18.10199356	0.76470590
18.10630989	4.45098019
18.11075974	2.62745094
18.11416626	2.09803915
18.11416626	2.90196085
18.11822128	2.09803915
18.12227631	0.88235295
18.12638092	3.05882359
18.12638092	4.33333349
18.13049316	2.25490189
18.13462257	2.21568632
18.13868523	3.49019599
18.13868523	1.37254906
18.14289665	1.76470590
18.14717293	4.23529434
18.15095711	2.50980401
18.15513420	3.03921580
18.15916634	3.58823538
18.15916634	1.27450979
18.16325378	2.78431368
18.16731644	4.98039198
18.17141342	3.25490189
18.17141342	2.72549009
18.17552567	3.54901958
18.17960358	2.70588231
18.18369293	1.58823526
18.18369293	3.78431368
18.18776321	4.98039198
18.19190025	3.07843137
18.19602966	4.27450991
18.20031357	2.15686274
18.20427132	2.58823538
18.20427132	4.98039198
18.20849037	4.52941179
18.21242142	3.23529410
18.21677971	3.78431368
18.21677971	4.19607830
18.22079468	1.88235295
18.22493172	3.39215684
18.22879791	4.98039198
18.22879791	3.68627453
18.23327065	3.17647052
18.23707199	3.98039222
18.23707199	3.05882359
18.24119949	1.96078432
18.24514008	4.09803915
18.24928474	4.98039198
18.24928474	3.13725495
18.25334930	3.07843137
18.25746918	4.17647076
18.26161385	1.96078432
18.26161385	2.35294127
18.26592445	4.66666651
18.26996994	4.09803915
18.27412415	2.82352948
18.27412415	3.29411769
18.27796555	3.66666675
18.28226662	1.41176474
18.28226662	2.88235283
18.28740311	4.94117641
18.29089355	3.05882359
18.29464531	2.54901958
18.29464531	3.31372547
18.29848671	2.23529410
18.30253410	1.23529410
18.30662918	3.27450991
18.30662918	4.21568632
18.31070900	2.25490189
18.31482124	2.17647052
18.31890869	3.27450991
18.31890869	1.03921568
18.32300568	1.49019611
18.32711792	3.76470590
18.32711792	3.07843137
18.33147621	1.86274505
18.33556366	2.33333325
18.33956909	2.58823538
18.33956909	0.41176471
18.34408379	1.96078432
18.34799957	4.00000000
18.35211945	2.11764717
18.35211945	1.68627453
18.35620689	2.52941179
18.36040115	1.43137252
18.36402321	0.54901963
18.36402321	2.68627453
18.36807823	3.58823538
18.37214851	1.64705884
18.37214851	1.66666663
18.37625313	2.76470590
18.38036537	0.47058824
18.38445282	1.01960790
18.38445282	3.31372547
18.38882828	2.58823538
18.39290047	1.47058821
18.39700317	2.05882359
18.39700317	2.29411769
18.40107536	0.27450982
18.40517044	1.94117641
18.40916061	3.98039222
18.40916061	2.07843137
18.41448593	1.76470590
18.41807365	2.66666675
18.41807365	1.50980389
18.42140770	0.74509805
18.42548752	2.94117641
18.42951775	3.76470590
18.42951775	1.90196073
18.43360519	1.98039210
18.43767738	3.11764717
18.44181442	0.86274511
18.44181442	1.50980389
18.44600105	3.80392146
18.44996452	2.98039222
18.45423317	2.54901958
18.45835304	2.70588231
18.46245003	0.78431374
18.46245003	2.49019599
18.46666908	4.47058821
18.47178078	2.54901958
18.47472954	2.23529410
18.47472954	3.07843137
18.47881699	1.80392158
18.48320770	1.07843137
18.48693466	3.21568632
18.48693466	3.92156863
18.49099922	2.07843137
18.49513626	2.17647052
18.49914932	0.98039216
18.50324631	1.76470590
18.50739861	4.07843161
18.50739861	3.17647052
18.51152039	2.23529410
18.51555061	2.86274505
18.51960564	2.88235283
18.51960564	0.94117647
18.52372551	2.62745094
18.52797699	4.49019623
18.53214645	2.54901958
18.53214645	2.23529410
18.53654671	3.11764717
18.54062653	1.78431368
18.54427910	3.31372547
18.54858017	3.90196085
18.55245590	2.07843137
18.55245590	2.17647052
18.55650139	3.17647052
18.56058121	0.84313726
18.56468582	1.60784316
18.56468582	3.88235283
18.56878090	2.90196085
18.57307434	2.01960778
18.57720375	2.64705873
18.57720375	2.66666675
18.58132362	0.84313726
18.58539581	2.56862736
18.58929443	2.43137264
18.59399605	2.11764717
18.59782982	3.03921580
18.59782982	1.64705884
18.60205841	1.11764705
18.60614586	3.27450991
18.60986519	3.80392146
18.60986519	2.05882359
18.61384583	2.23529410
18.61791801	3.21568632
18.62203026	0.92156863
18.62203026	1.74509799
18.62612534	3.96078420
18.63025475	2.92156863
18.63463783	2.66666675
18.63845444	2.52941179
18.64273071	0.78431374
18.64273071	2.47058821
18.64681053	4.19607830
18.65094757	2.21568632
18.65485573	1.94117641
18.65485573	2.84313726
18.65990067	1.37254906
18.66312027	0.96078432
18.66715050	3.09803915
18.66715050	3.54901958
18.67121506	1.88235295
18.67527771	2.09803915
18.67939758	0.80392158
18.68346977	1.68627453
18.68763161	3.86274505
18.68763161	2.74509811
18.69165421	1.94117641
18.69576645	2.52941179
18.70010757	2.35294127
18.70010757	0.68627453
18.70417976	2.43137264
18.70809555	4.11764717
18.71247864	2.21568632
18.71247864	2.00000000
18.71643448	2.96078420
18.72064590	1.49019611
18.72477341	3.31372547
18.72877884	3.64705873
18.73301506	2.05882359
18.73301506	2.29411769
18.73690605	3.17647052
18.74103546	0.88235295
18.74512291	1.80392158
18.74512291	3.96078420
18.74912071	2.78431368
18.75322533	2.01960778
18.75728798	2.62745094
18.75728798	2.35294127
18.76131058	0.74509805
18.76543045	2.50980401
18.76543045	4.09803915
18.76947784	2.17647052
18.77363968	2.00000000
18.77770233	3.01960778
18.77770233	1.50980389
18.78202820	1.27450979
18.78617287	3.41176462
18.79017830	3.62745094
18.79017830	2.05882359
18.79411888	2.27450991
18.79917336	3.09803915
18.80318832	0.78431374
18.80318832	1.74509799
18.80644798	3.84313726
18.81047821	2.54901958
18.81047821	1.78431368
18.81455803	2.35294127
18.81865501	1.98039210
18.82276726	0.47058824
18.82276726	2.25490189
18.82686234	3.80392146
18.83118057	1.84313726
18.83542252	1.68627453
18.83542252	2.72549009
18.83942032	1.03921568
18.84328842	0.90196079
18.84761238	3.05882359
18.84761238	3.19607854
18.85166740	1.66666663
18.85570717	1.92156863
18.85570717	2.68627453
18.85968018	0.39215687
18.86373520	1.43137252
18.86786270	3.56862736
18.86786270	2.21568632
18.87189484	1.56862748
18.87600708	2.23529410
18.88016701	1.86274505
18.88016701	0.43137255
18.88418198	2.31372547
18.88827896	3.76470590
18.89243889	1.86274505
18.89243889	1.72549021
18.89669037	2.80392146
18.90092659	1.11764705
18.90092659	1.11764705
18.90496445	3.37254906
18.90969276	3.45098042
18.91300201	2.03921580
18.91300201	2.41176462
18.91731071	3.19607854
18.92156219	0.94117647
18.92523956	2.09803915
18.92523956	4.25490189
18.92928696	2.80392146
18.93335915	2.17647052
18.93745422	2.90196085
18.93745422	2.45098042
18.94155121	1.13725495
18.94572067	3.09803915
18.94572067	4.58823538
18.94974327	2.72549009
18.95379829	2.60784316
18.95794296	3.70588231
18.95794296	1.92156863
18.96210480	2.01960778
18.96611023	4.23529434
18.97024727	4.21568632
18.97024727	2.80392146
18.97432709	3.23529410
18.97845650	3.92156863
18.98252678	2.86274505
18.98668861	4.98039198
18.99073601	3.52941179
18.99073601	2.96078420
18.99480629	3.60784316
18.99889374	3.07843137
19.00299835	1.80392158
19.00299835	3.70588231
19.00712776	4.98039198
19.01128960	3.13725495
19.01562309	3.07843137
19.01562309	4.11764717
19.01967812	2.31372547
19.02377319	2.45098042
19.02769852	4.35294104
19.03206444	2.96078420
19.03620148	3.33333325
19.03620148	3.88235283
19.04035378	1.70588231
19.04409790	2.90196085
19.04809570	4.88235283
19.04809570	3.31372547
19.05218315	2.68627453
19.05619812	3.27450991
19.06039238	2.49019599
19.06039238	1.17647064
19.06446266	3.00000000
19.06855202	4.09803915
19.07286072	1.70588231
19.07703018	2.66666675
19.08115005	0.56862748
19.08115005	0.58823532
19.08514786	2.64705873
19.08926964	2.27450991
19.09406090	0.88235295
19.09406090	1.21568632
19.09774017	1.68627453
19.10145760	0.00000000
19.10642242	0.70588237
19.10642242	2.72549009
19.10983849	1.09803927
19.11367226	0.60784316
19.11771965	0.58823532
19.12178230	0.00000000
19.12589455	1.39215684
19.12589455	2.50980401
19.13003159	0.50980395
19.13404655	0.43137255
19.13818359	1.35294116
19.13818359	0.00000000
19.14225388	0.00000000
19.14648247	1.76470590
19.15070915	1.27450979
19.15070915	0.15686275
19.15476418	0.72549021
19.15918732	1.23529410
19.16282463	0.58823532
19.16751862	2.68627453
19.17190170	1.00000000
19.17190170	0.49019608
19.17507935	1.21568632
19.17919159	0.31372550
19.18326378	0.00000000
19.18326378	1.33333337
19.18732643	2.37254906
19.19140625	0.52941179
19.19556046	0.60784316
19.19556046	1.84313726
19.19985199	0.00000000
19.20402145	0.33333334
19.20811081	2.23529410
19.21195221	1.13725495
19.21626091	1.74509799
19.21626091	2.25490189
19.22030067	0.17647059
19.22423172	1.74509799
19.22843361	3.88235283
19.22843361	2.13725495
19.23308754	1.76470590
19.23666000	2.62745094
19.24067307	1.76470590
19.24067307	0.86274511
19.24467850	3.05882359
19.24878311	4.17647076
19.25285530	2.33333325
19.25695038	3.37254906
19.26121140	1.17647064
19.26121140	1.50980389
19.26540565	3.58823538
19.26955795	2.94117641
19.27366257	1.60784316
19.27366257	2.29411769
19.27749634	2.64705873
19.28215027	0.56862748
19.28614616	2.09803915
19.28614616	4.23529434
19.29096413	2.56862736
19.29442024	2.25490189
19.29442024	3.15686274
19.29800034	2.21568632
19.30206490	1.39215684
19.30612755	3.41176462
19.30612755	4.25490189
19.31020737	2.29411769
19.31432724	2.35294127
19.31843185	3.35294127
19.31843185	1.09803927
19.32271576	1.56862748
19.32690239	3.64705873
19.33081818	2.88235283
19.33081818	1.78431368
19.33479881	2.23529410
19.33922386	2.45098042
19.33922386	0.45098040
19.34410477	1.86274505
19.34756279	3.74509811
19.35193634	2.00000000
19.35193634	1.92156863
19.35536957	2.70588231
19.36036682	1.82352936
19.36354446	1.15686274
19.36354446	3.27450991
19.36757469	4.07843161
19.37165451	2.23529410
19.37578392	2.25490189
19.37578392	3.35294127
19.37990379	1.15686274
19.38395119	1.62745094
19.38395119	3.90196085
19.38821983	3.23529410
19.39231491	2.39215684
19.39651871	2.94117641
19.39651871	3.29411769
19.40057373	1.37254906
19.40452957	2.90196085
19.40978813	4.78431368
19.40978813	3.03921580
19.41304207	2.72549009
19.41759682	3.68627453
19.42108536	2.68627453
19.42108536	2.03921580
19.42494392	4.07843161
19.42907333	4.98039198
19.42907333	3.33333325
19.43313599	3.47058821
19.43728065	4.54901981
19.44130325	2.37254906
19.44130325	3.01960778
19.44549751	4.88235283
19.44970894	4.21568632
19.45384598	3.29411769
19.45384598	3.86274505
19.45788383	4.13725471
19.46179199	2.35294127
19.46614075	3.92156863
19.46614075	4.98039198
19.47074509	3.78431368
19.47493172	3.39215684
19.47493172	4.19607830
19.47826576	3.09803915
19.48318100	2.45098042
19.48672867	4.47058821
19.48672867	4.98039198
19.49046326	3.52941179
19.49461746	3.70588231
19.49866486	4.58823538
19.49866486	2.33333325
19.50275230	2.96078420
19.50687218	4.86274529
19.51105881	2.98039222
19.51534271	3.45098042
19.51941490	3.64705873
19.51941490	1.90196073
19.52352715	3.37254906
19.52758980	4.98039198
19.53153801	3.41176462
19.53153801	3.13725495
19.53647804	3.70588231
19.54011536	2.25490189
19.54413033	1.84313726
19.54413033	3.50980401
19.54788208	4.00000000
19.55194473	2.47058821
19.55599976	3.80392146
19.56012917	1.52941179
19.56424141	2.25490189
19.56424141	4.03921556
19.56828690	3.25490189
19.57237625	2.21568632
19.57648849	2.68627453
19.57648849	2.84313726
19.58072281	1.27450979
19.58468819	2.90196085
19.58880806	4.56862736
19.58880806	2.88235283
19.59314156	2.74509811
19.59744263	3.21568632
19.60131836	1.41176474
19.60569191	3.35294127
19.60982132	3.68627453
19.60982132	2.17647052
19.61363029	2.41176462
19.61764526	3.29411769
19.62175751	1.03921568
19.62175751	1.82352936
19.62573051	4.07843161
19.62978554	2.66666675
19.63382339	2.23529410
19.63382339	2.66666675
19.63793564	2.76470590
19.64203262	1.11764705
19.64618492	4.49019623
19.65021515	3.05882359
19.65434456	2.84313726
19.65434456	3.64705873
19.65840721	2.49019599
19.66255379	1.94117641
19.66689491	3.92156863
19.66689491	4.09803915
19.67098999	2.54901958
19.67484093	2.96078420
19.67899513	3.76470590
19.67899513	2.07843137
19.68299294	2.72549009
19.68712997	4.47058821
19.69116783	2.43137264
19.69535446	2.58823538
19.69967842	2.70588231
19.69967842	1.07843137
19.70362854	2.35294127
19.70784760	4.01960802
19.71171379	2.17647052
19.71171379	2.13725495
19.71603775	2.98039222
19.72089577	1.49019611
19.72466469	1.05882359
19.72466469	3.21568632
19.72832680	3.52941179
19.73280716	2.09803915
19.73652649	3.15686274
19.74054909	0.94117647
19.74461174	1.70588231
19.74461174	3.50980401
19.74866676	2.49019599
19.75275612	1.72549021
19.75684357	2.07843137
19.75684357	1.78431368
19.76085663	0.49019608
19.76490402	1.84313726
19.76904869	3.41176462
19.76904869	1.35294116
19.77313614	1.37254906
19.77751160	2.56862736
19.78163147	0.96078432
19.78566170	3.03921580
19.78982353	3.84313726
19.78982353	2.45098042
19.79387093	2.60784316
19.79901505	3.09803915
19.80264473	1.05882359
19.80264473	1.90196073
19.80664253	3.19607854
19.81001663	2.05882359
19.81416321	1.84313726
19.81416321	2.56862736
19.81815147	2.54901958
19.82227325	1.15686274
19.82227325	2.76470590
19.82636833	4.33333349
19.83056259	2.54901958
19.83484650	1.76470590
19.83484650	3.03921580
19.83894348	1.94117641
19.84303093	1.72549021
19.84688950	3.56862736
19.84688950	3.96078420
19.85102654	2.74509811
19.85528564	3.11764717
19.85917664	3.58823538
19.85917664	1.43137252
19.86336327	2.31372547
19.86737823	4.15686274
19.86737823	2.94117641
19.87140846	2.64705873
19.87550354	2.90196085
19.87966537	2.66666675
19.87966537	1.54901958
19.88370514	3.45098042
19.88811111	4.49019623
19.89219856	2.86274505
19.89219856	2.80392146
19.89601707	3.66666675
19.90042496	2.23529410
19.90420151	1.92156863
19.90420151	3.72549009
19.90857506	4.17647076
19.91263008	2.35294127
19.91263008	3.03921580
19.91702843	3.86274505
19.92167473	1.82352936
19.92479515	3.00000000
19.92479515	4.49019623
19.92881012	3.35294127
19.93285561	2.82352948
19.93698502	3.01960778
19.93698502	2.52941179
19.94107246	1.78431368
19.94532394	2.62745094
19.94956779	4.09803915
19.94956779	2.68627453
19.95336151	2.41176462
19.95747375	3.31372547
19.95747375	1.84313726
19.96154404	2.37254906
19.96592712	3.86274505
19.96977806	3.37254906
19.96977806	2.11764717
19.97484779	2.35294127
19.97812462	2.50980401
19.98212242	0.64705884
19.98212242	1.25490201
19.98622704	3.60784316
19.99024200	2.13725495
19.99432945	1.88235295
19.99432945	2.27450991
19.99845695	2.03921580
20.00252914	0.66666669
20.00252914	1.96078432
20.00660133	3.27450991
20.01099205	1.43137252
20.01513672	2.19607854
20.01513672	2.70588231
20.01893044	1.25490201
20.02318954	1.72549021
20.02711296	3.80392146
20.02711296	3.19607854
20.03185654	2.23529410
20.03534698	2.68627453
20.03943443	1.50980389
20.04347229	1.94117641
20.04761887	3.70588231
20.04761887	2.74509811
20.05168915	2.33333325
20.05574417	3.00000000
20.05985641	2.76470590
20.05985641	2.13725495
20.06397820	3.29411769
20.06799889	4.17647076
20.07211304	2.60784316
20.07211304	2.76470590
20.07619095	2.84313726
20.08036995	1.82352936
20.08471870	3.60784316
20.08879852	4.07843161
20.09303474	2.80392146
20.09303474	3.25490189
20.09695053	4.13725471
20.10112762	1.88235295
20.10533905	3.11764717
20.10533905	4.54901981
20.10934448	3.13725495
20.11322784	2.35294127
20.11725044	3.31372547
20.11725044	2.49019599
20.12128830	1.56862748
20.12537575	3.39215684
20.12954712	3.09803915
20.13358498	2.82352948
20.13768005	3.54901958
20.13768005	2.07843137
20.14207268	1.84313726
20.14597130	3.43137264
20.15017319	3.29411769
20.15017319	2.11764717
20.15432739	2.35294127
20.15834045	2.82352948
20.16247749	1.05882359
20.16247749	2.07843137
20.16699219	3.27450991
20.17110443	2.13725495
20.17466736	2.66666675
20.17869759	1.76470590
20.18276215	1.03921568
20.18276215	2.74509811
20.18682480	3.41176462
20.19092941	1.74509799
20.19510651	1.96078432
20.19510651	2.76470590
20.19945717	1.31372547
20.20343018	1.80392158
20.20736122	3.50980401
20.20736122	3.01960778
20.21140099	2.31372547
20.21581650	2.62745094
20.22040367	1.23529410
20.22393417	2.31372547
20.22779274	3.64705873
20.22779274	2.50980401
20.23206139	1.84313726
20.23607445	2.27450991
20.24017143	1.47058821
20.24017143	0.54901963
20.24417686	2.11764717
20.24828148	2.74509811
20.25241852	1.43137252
20.25241852	1.35294116
20.25648117	2.23529410
20.26092911	0.74509805
20.26473808	2.84313726
20.26905632	2.66666675
20.27293015	1.94117641
20.27293015	2.33333325
20.27727318	2.74509811
20.28128624	1.19607842
20.28663635	2.31372547
20.28663635	3.90196085
20.28955269	2.58823538
20.29391861	2.21568632
20.29773712	3.05882359
20.29773712	2.35294127
20.30173302	1.70588231
20.30570793	3.45098042
20.30972862	3.05882359
20.31380844	3.01960778
20.31793785	3.84313726
20.31793785	2.31372547
20.32200050	2.50980401
20.32612991	4.17647076
20.33052063	3.78431368
20.33052063	2.94117641
20.33430481	3.25490189
20.33865547	3.45098042
20.34275055	1.84313726
20.34275055	2.92156863
20.34682274	4.35294104
20.35222054	2.94117641
20.35222054	2.62745094
20.35574341	3.21568632
20.36006927	2.33333325
20.36305046	1.78431368
20.36305046	3.45098042
20.36717224	4.11764717
20.37117767	2.92156863
20.37527275	2.92156863
20.37527275	3.78431368
20.37938499	2.23529410
20.38347435	2.54901958
20.38765144	4.11764717
20.38765144	3.60784316
20.39168167	2.78431368
20.39580345	3.09803915
20.39580345	3.11764717
20.40012741	1.27450979
20.40394592	2.47058821
20.40862274	3.78431368
20.40862274	2.33333325
20.41224480	2.05882359
20.41745377	2.78431368
20.42122269	1.96078432
20.42122269	1.37254906
20.42449951	2.90196085
20.42856216	3.45098042
20.43263435	1.94117641
20.43263435	1.94117641
20.43670464	2.70588231
20.44083405	1.00000000
20.44083405	1.35294116
20.44502831	2.98039222
20.44918251	2.33333325
20.45342445	1.49019611
20.45342445	1.74509799
20.45748901	1.92156863
20.46128082	0.37254903
20.46571350	1.56862748
20.46571350	3.01960778
20.47027588	1.66666663
20.47421646	1.41176474
20.47833633	2.09803915
20.47833633	1.17647064
20.48291588	0.72549021
20.48611069	2.43137264
20.48611069	3.07843137
20.49013329	1.78431368
20.49423027	1.78431368
20.49836731	2.60784316
20.49836731	0.88235295
20.50235558	1.27450979
20.50645256	3.07843137
20.51050758	2.47058821
20.51050758	1.84313726
20.51456261	2.39215684
20.51865005	2.52941179
20.52275467	1.09803927
20.52275467	2.45098042
20.52693939	3.86274505
20.53126526	2.43137264
20.53126526	2.23529410
20.53531265	2.92156863
20.53940773	1.96078432
20.54352951	1.43137252
20.54352951	2.92156863
20.54774857	3.33333325
20.55144310	1.96078432
20.55560303	1.82352936
20.55560303	2.74509811
20.55960083	1.03921568
20.56371498	1.54901958
20.56780243	2.72549009
20.57189751	2.13725495
20.57630539	2.60784316
20.57630539	2.58823538
20.58042526	1.29411769
20.58448029	2.50980401
20.58856773	3.88235283
20.58856773	2.52941179
20.59300041	2.27450991
20.59677696	2.88235283
20.60132408	1.80392158
20.60132408	1.29411769
20.60535431	2.76470590
20.60944939	3.13725495
20.61294746	1.86274505
20.61698723	2.54901958
20.62104988	0.76470590
20.62104988	1.45098042
20.62515450	3.05882359
20.62927437	2.45098042
20.63345337	1.90196073
20.63345337	2.43137264
20.63774490	2.47058821
20.64183235	1.15686274
20.64565849	2.33333325
20.64565849	3.58823538
20.64989471	2.15686274
20.65412140	1.86274505
20.65873337	1.47058821
20.66212463	1.07843137
20.66696548	2.72549009
20.66696548	3.11764717
20.67149544	1.94117641
20.67506790	2.13725495
20.67849159	2.84313726
20.67849159	1.19607842
20.68254662	1.76470590
20.68661118	3.15686274
20.69071388	2.41176462
20.69071388	1.74509799
20.69478607	2.07843137
20.69891548	1.96078432
20.70297813	2.15686274
20.70727921	3.49019599
20.71157074	2.11764717
20.71157074	1.96078432
20.71557808	2.68627453
20.71964836	1.58823526
20.72377014	1.37254906
20.72377014	3.00000000
20.72839737	3.33333325
20.73260117	2.23529410
20.73582840	2.45098042
20.73582840	3.11764717
20.73988342	1.45098042
20.74395370	2.03921580
20.74804306	2.78431368
20.75213051	2.23529410
20.75623512	2.62745094
20.75623512	2.50980401
20.76063347	1.31372547
20.76472855	2.60784316
20.76882553	3.60784316
20.76882553	2.39215684
20.77289772	2.23529410
20.77677917	2.92156863
20.78126144	1.84313726
20.78126144	1.78431368
20.78570938	3.45098042
20.79023933	3.70588231
20.79388428	2.70588231
20.79723549	3.25490189
20.80137253	1.49019611
20.80137253	2.03921580
20.80538559	3.68627453
20.80949020	2.76470590
20.81371689	2.03921580
20.81371689	2.64705873
20.81766510	2.47058821
20.82179451	1.29411769
20.82612038	2.64705873
20.82612038	3.82352948
20.82998657	2.41176462
20.83416557	2.17647052
20.83819580	1.72549021
20.84250450	1.49019611
20.84637833	3.09803915
20.84637833	3.23529410
20.85050774	2.07843137
20.85579109	2.21568632
20.85925674	2.68627453
20.85925674	0.92156863
20.86277199	1.56862748
20.86683464	3.13725495
20.87093925	2.21568632
20.87093925	1.74509799
20.87505150	2.23529410
20.87917137	2.03921580
20.87917137	1.01960790
20.88321877	2.39215684
20.88731384	3.52941179
20.89145088	2.15686274
20.89145088	1.98039210
20.89553833	2.78431368
20.89987183	1.58823526
20.90421486	1.35294116
20.90421486	3.13725495
20.90809822	3.15686274
20.91197968	2.09803915
20.91691971	2.39215684
20.91691971	2.94117641
20.92066383	1.31372547
20.92489052	2.09803915
20.92489052	3.66666675
20.92850304	2.64705873
20.93297577	2.17647052
20.93660545	2.68627453
20.93660545	2.33333325
20.94057083	1.35294116
20.94462585	2.72549009
20.94874573	3.84313726
20.94874573	2.47058821
20.95285797	2.39215684
20.95695496	3.17647052
20.96136284	1.90196073
20.96136284	1.88235295
20.96545029	3.50980401
20.96926689	3.54901958
20.96926689	2.56862736
20.97332954	2.82352948
20.97772980	3.31372547
20.98169518	1.66666663
20.98169518	2.50980401
20.98715019	4.11764717
20.99049187	3.07843137
20.99473572	2.70588231
20.99473572	3.27450991
20.99797249	2.96078420
21.00202751	1.98039210
21.00610733	3.43137264
21.00610733	4.41176462
21.01016235	2.96078420
21.01433182	2.74509811
21.01433182	3.27450991
21.01840210	1.96078432
21.02276039	1.78431368
21.02690697	3.33333325
21.02690697	3.27450991
21.03086281	2.35294127
21.03508186	2.60784316
21.03915405	2.98039222
21.03915405	1.23529410
21.04302788	1.98039210
21.04732132	3.45098042
21.05140114	1.64705884
21.05536461	2.05882359
21.05937958	1.50980389
21.05937958	0.50980395
21.06344986	1.88235295
21.06751442	2.80392146
21.07169151	1.37254906
21.07169151	1.19607842
21.07576370	1.98039210
21.08007240	0.49019608
21.08422470	0.54901963
21.08422470	2.15686274
21.08829689	2.00000000
21.09240150	1.07843137
21.09659576	1.82352936
21.10057640	0.29411766
21.10555840	1.31372547
21.10555840	2.96078420
21.10973549	1.84313726
21.11267662	1.58823526
21.11676407	2.17647052
21.11676407	1.70588231
21.12081146	0.94117647
21.12490654	2.49019599
21.12906837	3.50980401
21.12906837	2.21568632
21.13313103	2.23529410
21.13727760	3.13725495
21.14160156	1.98039210
21.14538765	3.66666675
21.14978600	3.54901958
21.14978600	2.68627453
21.15364456	3.05882359
21.15796089	3.45098042
21.16197586	1.90196073
21.16197586	2.94117641
21.16678429	4.50980377
21.17108536	3.33333325
21.17542648	3.03921580
21.17542648	3.62745094
21.17859650	3.05882359
21.18237305	2.25490189
21.18636322	4.56862736
21.19050026	3.17647052
21.19455528	3.09803915
21.19455528	3.84313726
21.19865990	2.31372547
21.20273018	2.47058821
21.20682716	4.09803915
21.20682716	3.72549009
21.21123505	2.84313726
21.21535492	3.15686274
21.21938515	3.41176462
21.21938515	1.82352936
21.22349739	2.84313726
21.22801971	4.31372547
21.23260689	2.70588231
21.23584366	3.21568632
21.23966026	2.50980401
21.23966026	1.68627453
21.24371529	3.09803915
21.24780273	3.84313726
21.25189972	2.43137264
21.25189972	2.31372547
21.25597000	3.01960778
21.26032829	1.41176474
21.26452255	1.37254906
21.26452255	3.07843137
21.26852989	2.64705873
21.27262497	1.68627453
21.27675438	2.41176462
21.28115273	0.96078432
21.28633118	1.98039210
21.28633118	3.47058821
21.28968048	2.15686274
21.29421997	1.78431368
21.29775047	2.21568632
21.29775047	1.52941179
21.30110931	0.82352942
21.30516434	2.31372547
21.30925941	3.07843137
21.30925941	1.78431368
21.31334686	1.80392158
21.31746864	2.54901958
21.32153130	1.19607842
21.32590675	2.80392146
21.32997704	2.33333325
21.32997704	1.54901958
21.33404922	1.88235295
21.33814430	2.11764717
21.34228134	0.68627453
21.34228134	1.74509799
21.34659004	3.25490189
21.35155487	2.01960778
21.35536385	1.78431368
21.35536385	2.41176462
21.35950089	1.66666663
21.36293411	1.09803927
21.36713600	3.35294127
21.37069130	2.09803915
21.37487030	2.15686274
21.37487030	2.96078420
21.37889099	1.45098042
21.38297081	1.82352936
21.38713264	3.43137264
21.38713264	2.94117641
21.39116287	2.21568632
21.39525986	2.56862736
21.39940453	2.68627453
21.39940453	1.23529410
21.40374565	2.29411769
21.40784264	3.68627453
21.40784264	2.35294127
21.41164398	2.05882359
21.41625595	2.60784316
21.42055702	1.78431368
21.42055702	1.23529410
21.42454529	2.76470590
21.42871475	3.37254906
21.43279457	2.13725495
21.43279457	2.21568632
21.43664551	2.98039222
21.44054413	1.45098042
21.44462395	1.86274505
21.44462395	3.47058821
21.44869614	2.96078420
21.45275879	2.21568632
21.45275879	2.56862736
21.45678902	2.62745094
21.46089363	1.23529410
21.46489143	2.39215684
21.46489143	3.76470590
21.46900368	2.45098042
21.47313309	2.19607854
21.47721291	2.80392146
21.47721291	1.88235295
21.48161125	1.41176474
21.48562622	2.90196085
21.48972130	3.39215684
21.48972130	2.15686274
21.49385071	2.21568632
21.49794579	2.92156863
21.49794579	1.33333337
21.50177956	1.76470590
21.50590134	3.37254906
21.50997925	2.76470590
21.50997925	2.11764717
21.51422310	2.49019599
21.51814842	2.47058821
21.52225113	1.15686274
21.52225113	2.31372547
21.52663422	3.64705873
21.53068161	2.31372547
21.53482628	2.05882359
21.53482628	2.68627453
21.53886604	1.76470590
21.54292107	1.31372547
21.54292107	2.82352948
21.54713058	3.31372547
21.55161285	2.11764717
21.55510139	2.19607854
21.55510139	2.92156863
21.55919838	1.31372547
21.56319618	1.88235295
21.56740570	3.52941179
21.56740570	2.88235283
21.57140350	2.25490189
21.57550049	2.68627453
21.57996368	2.68627453
21.57996368	1.37254906
21.58385468	2.52941179
21.58805084	3.86274505
21.58805084	2.49019599
21.59216309	2.23529410
21.59615135	2.90196085
21.60064125	1.90196073
21.60064125	1.52941179
21.60479355	3.07843137
21.60884094	3.43137264
21.61296272	2.21568632
21.61296272	2.29411769
21.61670494	2.96078420
21.62073517	1.29411769
21.62483978	3.49019599
21.62892723	2.76470590
21.63294983	2.17647052
21.63294983	2.58823538
21.63704681	2.49019599
21.64106941	1.23529410
21.64515686	2.47058821
21.64515686	3.72549009
21.64924431	2.35294127
21.65333176	2.17647052
21.65769768	2.84313726
21.65769768	1.82352936
21.66174507	1.56862748
21.66593933	3.17647052
21.66998672	2.35294127
21.67404938	2.47058821
21.67863655	3.13725495
21.67863655	1.49019611
21.68297958	2.09803915
21.68617439	3.68627453
21.69025421	2.86274505
21.69025421	2.29411769
21.69430923	2.66666675
21.69840431	2.49019599
21.70254898	1.31372547
21.70254898	2.58823538
21.70658875	3.80392146
21.71098709	2.49019599
21.71480560	3.00000000
21.71917915	1.88235295
21.72327614	1.68627453
21.72327614	3.27450991
21.72732162	3.50980401
21.73243332	2.39215684
21.73604584	2.58823538
21.73604584	3.19607854
21.73945427	1.54901958
21.74345970	2.25490189
21.74755669	3.86274505
21.74755669	3.00000000
21.75166130	2.45098042
21.75576401	2.90196085
21.75982857	1.52941179
21.76425934	2.84313726
21.76802063	4.00000000
21.76802063	2.60784316
21.77236938	2.43137264
21.77644920	3.15686274
21.78051186	1.94117641
21.78051186	1.76470590
21.78499413	3.31372547
21.78937721	3.45098042
21.79380035	2.37254906
21.79380035	2.52941179
21.79726601	3.11764717
21.80088615	1.49019611
21.80496597	3.86274505
21.80901337	2.90196085
21.81315804	2.45098042
21.81315804	2.92156863
21.81718826	2.62745094
21.82130051	1.56862748
21.82542038	2.88235283
21.82542038	3.94117641
21.82968140	2.52941179
21.83384323	2.35294127
21.83770180	3.07843137
21.83770180	1.82352936
21.84192085	1.74509799
21.84590149	3.35294127
21.85043907	2.39215684
21.85460091	2.60784316
21.85898399	3.11764717
21.85898399	1.47058821
21.86253166	2.23529410
21.86639023	3.78431368
21.87049294	2.84313726
21.87049294	2.33333325
21.87466431	2.76470590
21.87863731	2.43137264
21.88274956	1.41176474
21.88274956	2.76470590
21.88682938	3.84313726
21.89094925	2.49019599
21.89497948	3.07843137
21.89916611	1.78431368
21.90322876	1.72549021
21.90322876	3.25490189
21.90730095	3.27450991
21.91140366	2.19607854
21.91559792	2.41176462
21.91559792	2.84313726
21.91962051	1.17647064
21.92369270	1.98039210
21.92780495	3.52941179
21.92780495	2.49019599
21.93187714	2.03921580
21.93597984	2.52941179
21.93597984	2.13725495
21.94013405	1.17647064
21.94417191	2.54901958
21.94860458	3.54901958
21.94860458	2.17647052
21.95265198	2.00000000
21.95671463	2.74509811
21.96086693	1.39215684
21.96086693	1.39215684
21.96481705	3.00000000
21.96872330	2.94117641
21.97285271	1.94117641
21.97285271	2.17647052
21.97738266	2.60784316
21.98160934	1.00000000
21.98160934	1.84313726
21.98559952	3.41176462
21.98932648	2.33333325
21.99342346	1.92156863
21.99342346	2.45098042
21.99741173	2.00000000
22.00153351	1.11764705
22.00564575	2.56862736
22.00564575	3.50980401
22.00971603	2.15686274
22.01414108	2.01960778
22.01820374	2.76470590
22.01820374	1.39215684
22.02230835	1.45098042
22.02633095	3.05882359
22.02633095	2.96078420
22.03046799	2.01960778
22.03455544	2.27450991
22.03851891	2.64705873
22.03851891	1.07843137
22.04273033	1.96078432
22.04691696	3.50980401
22.05075836	2.41176462
22.05075836	2.03921580
22.05479813	2.56862736
22.05888557	2.07843137
22.06300545	1.27450979
22.06300545	2.72549009
22.06705284	3.66666675
22.07118225	2.31372547
22.07118225	2.17647052
22.07526016	2.92156863
22.07937241	1.47058821
22.08369827	1.56862748
22.08369827	3.13725495
22.08779526	2.94117641
22.09188271	2.03921580
22.09605217	2.31372547
22.09605217	2.64705873
22.10013962	1.07843137
22.10423660	2.07843137
22.10867691	2.41176462
22.11238670	2.05882359
22.11629486	2.58823538
22.11629486	2.00000000
22.12038231	1.23529410
22.12440491	2.68627453
22.12856674	3.54901958
22.12856674	2.19607854
22.13262177	2.13725495
22.13670921	2.90196085
22.14081383	1.47058821
22.14081383	1.66666663
22.14517212	3.27450991
22.14929199	3.05882359
22.15315056	2.49019599
22.15745163	2.76470590
22.16158867	1.23529410
22.16158867	2.19607854
22.16547966	3.66666675
22.16947746	2.47058821
22.17367172	2.07843137
22.17367172	2.60784316
22.17769432	1.96078432
22.18178177	1.23529410
22.18586159	2.68627453
22.18586159	3.47058821
22.18994141	2.17647052
22.19413567	2.13725495
22.19821548	1.39215684
22.20225334	1.66666663
22.20665169	3.23529410
22.20665169	2.90196085
22.21072388	2.07843137
22.21485329	2.41176462
22.21895599	2.64705873
22.21895599	1.15686274
22.22310257	2.19607854
22.22727966	3.68627453
22.23122787	2.47058821
22.23122787	2.15686274
22.23558617	2.68627453
22.23937988	2.00000000
22.24339294	2.80392146
22.24748993	3.52941179
22.25153732	2.23529410
22.25153732	2.19607854
22.25559998	2.96078420
22.25968742	1.43137252
22.26369286	1.70588231
22.26369286	3.31372547
22.26778030	2.90196085
22.27189445	2.11764717
22.27598953	2.43137264
22.27598953	2.62745094
22.28024101	1.19607842
22.28447723	2.25490189
22.28829384	2.47058821
22.29235649	2.19607854
22.29653549	2.74509811
22.29653549	2.03921580
22.30052376	1.43137252
22.30464554	2.90196085
22.30875778	3.58823538
22.30875778	2.37254906
22.31285286	2.35294127
22.31694221	3.13725495
22.32105446	1.62745094
22.32105446	1.96078432
22.32512474	3.60784316
22.32925415	3.15686274
22.33362770	2.80392146
22.33769226	2.96078420
22.34153366	1.56862748
22.34153366	2.64705873
22.34559631	4.01960802
22.35011864	2.68627453
22.35423088	2.35294127
22.35423088	2.86274505
22.35809708	2.01960778
22.36203003	1.49019611
22.36620712	2.96078420
22.36620712	3.56862736
22.37020493	2.37254906
22.37430191	2.39215684
22.37840652	1.58823526
22.38251877	2.01960778
22.38688469	3.64705873
22.38688469	3.11764717
22.39097214	2.43137264
22.39503479	2.76470590
22.39903259	2.84313726
22.39903259	1.49019611
22.40325165	2.62745094
22.40717697	3.98039222
22.41192818	2.70588231
22.41192818	2.45098042
22.41580200	3.01960778
22.42031670	2.17647052
22.42378998	3.19607854
22.42756653	3.76470590
22.43168640	2.52941179
22.43168640	2.58823538
22.43574905	3.33333325
22.43983841	1.70588231
22.44393349	2.19607854
22.44393349	3.78431368
22.44807053	3.19607854
22.45243645	2.49019599
22.45623016	2.80392146
22.45623016	2.84313726
22.46060371	1.50980389
22.46460152	2.64705873
22.46460152	3.98039222
22.46849251	2.70588231
22.47257233	2.43137264
22.47680855	3.05882359
22.47680855	2.15686274
22.48084641	1.70588231
22.48488617	3.23529410
22.48900604	3.68627453
22.48900604	2.45098042
22.49317551	2.47058821
22.49715805	3.15686274
22.50126076	1.52941179
22.50126076	2.01960778
22.50536537	3.58823538
22.50947762	2.90196085
22.50947762	2.27450991
22.51369667	2.60784316
22.51795578	2.54901958
22.52208519	1.25490201
22.52208519	2.41176462
22.52615738	3.70588231
22.53015518	2.43137264
22.53468513	2.21568632
22.53468513	2.88235283
22.53869820	1.96078432
22.54279518	1.64705884
22.54684067	3.17647052
22.54684067	3.58823538
22.55051994	2.43137264
22.55455017	2.50980401
22.55455017	3.21568632
22.55862999	1.60784316
22.56273460	2.17647052
22.56684685	3.72549009
22.56684685	2.98039222
22.57090950	2.37254906
22.57500648	2.70588231
22.57915878	2.58823538
22.57915878	1.33333337
22.58352470	2.50980401
22.58759689	3.74509811
22.59139824	2.41176462
22.59139824	2.15686274
22.59550285	2.82352948
22.60021210	1.82352936
22.60021210	1.52941179
22.60443115	3.05882359
22.60815811	3.43137264
22.61223030	2.27450991
22.61223030	2.37254906
22.61603165	3.05882359
22.62011909	1.45098042
22.62419128	2.03921580
22.62419128	3.62745094
22.62826157	2.88235283
22.63237381	2.29411769
22.63647079	2.56862736
22.64074707	1.41176474
22.64495659	2.66666675
22.64495659	3.88235283
22.64907837	2.58823538
22.65295982	2.41176462
22.65696716	3.05882359
22.65696716	1.98039210
22.66203690	1.74509799
22.66564941	3.25490189
22.67023849	3.49019599
22.67023849	2.37254906
22.67366982	2.47058821
22.67747116	3.07843137
22.68157578	2.09803915
22.68562317	3.64705873
22.68975067	2.80392146
22.68975067	2.21568632
22.69380569	2.60784316
22.69794273	2.39215684
22.70199776	1.25490201
22.70199776	2.50980401
22.70638847	3.66666675
22.71048546	2.31372547
22.71459007	2.09803915
22.71459007	2.80392146
22.71866035	1.62745094
22.72315788	1.45098042
22.72749138	3.15686274
22.73081017	2.01960778
22.73484802	2.13725495
22.73484802	2.66666675
22.73887825	0.98039216
22.74299812	1.64705884
22.74714470	3.21568632
22.74714470	2.29411769
22.75115776	1.76470590
22.75520515	2.23529410
22.75935936	1.98039210
22.75935936	0.88235295
22.76379013	2.23529410
22.76781273	3.37254906
22.77189255	1.84313726
22.77598000	2.56862736
22.78009224	1.37254906
22.78009224	1.25490201
22.78429413	2.84313726
22.78841591	2.96078420
22.79263496	1.94117641
22.79263496	2.11764717
22.79677963	2.70588231
22.80057335	1.07843137
22.80460358	1.82352936
22.80460358	3.41176462
22.80852699	2.45098042
22.81260681	1.98039210
22.81670189	2.19607854
22.82078171	1.19607842
22.82490349	2.62745094
22.82490349	3.78431368
22.82898140	2.50980401
22.83317566	2.41176462
22.83745193	3.21568632
22.83745193	1.98039210
22.84152412	2.00000000
22.84547234	3.66666675
22.84951210	3.68627453
22.84951210	2.68627453
22.85352516	2.92156863
22.85766220	3.41176462
22.86197090	2.56862736
22.86595345	4.09803915
22.86995888	3.03921580
22.86995888	2.50980401
22.87402916	2.94117641
22.87815094	2.47058821
22.88230324	1.45098042
22.88230324	2.80392146
22.88632584	3.74509811
22.89042282	2.37254906
22.89483833	2.17647052
22.89483833	2.96078420
22.89894104	1.58823526
22.90271759	1.58823526
22.90704346	3.13725495
22.91122246	2.09803915
22.91615295	2.31372547
22.91615295	2.70588231
22.91972542	1.03921568
22.92327309	1.92156863
22.92736053	3.50980401
22.92736053	2.43137264
22.93144798	2.05882359
22.93547821	2.64705873
22.93966484	2.21568632
22.93966484	1.35294116
22.94369507	2.82352948
22.94784737	3.82352948
22.94784737	2.43137264
22.95187950	2.35294127
22.95607376	3.15686274
22.96043205	1.72549021
22.96043205	1.86274505
22.96423149	3.56862736
22.96826172	3.43137264
22.97332573	2.47058821
22.97332573	2.80392146
22.97658539	3.21568632
22.98059082	1.58823526
22.98471260	2.52941179
22.98471260	4.11764717
22.98879242	2.92156863
22.99287987	2.47058821
22.99287987	3.00000000
22.99695969	2.43137264
23.00104713	1.52941179
23.00514221	3.00000000
23.00514221	3.90196085
23.00923157	2.49019599
23.01342583	2.39215684
23.01773453	3.21568632
23.01773453	1.72549021
23.02179718	1.88235295
23.02590942	3.58823538
23.02998161	3.33333325
23.02998161	2.35294127
23.03520775	2.64705873
23.03876305	3.00000000
23.03876305	1.39215684
23.04324341	2.43137264
23.04623413	4.03921556
23.05067444	2.78431368
23.05067444	2.39215684
23.05485153	2.98039222
23.05893898	2.29411769
23.06254387	1.47058821
23.06254387	3.01960778
23.06664085	3.84313726
23.07064629	2.41176462
23.07477570	2.35294127
23.07477570	3.15686274
23.07885551	1.56862748
23.08300781	1.82352936
23.08300781	3.49019599
23.08735847	3.13725495
23.09119225	2.19607854
23.09545898	2.56862736
23.09545898	2.86274505
23.09965324	1.23529410
23.10370064	2.37254906
23.10835457	3.92156863
23.10835457	2.60784316
23.11265564	2.19607854
23.11579323	2.78431368
23.11987114	2.01960778
23.11987114	1.31372547
23.12390327	2.94117641
23.12803078	3.70588231
23.12803078	2.27450991
23.13216019	2.21568632
23.13619804	3.05882359
23.14063072	1.31372547
23.14063072	1.60784316
23.14439964	3.31372547
23.14882278	2.80392146
23.15285301	1.88235295
23.15285301	2.21568632
23.15684319	2.39215684
23.16088867	0.74509805
23.16520691	3.45098042
23.17030144	2.05882359
23.17448044	1.72549021
23.17448044	2.39215684
23.17724037	1.56862748
23.18123055	0.92156863
23.18535042	2.58823538
23.18535042	3.33333325
23.18942261	1.90196073
23.19357491	1.94117641
23.19768715	2.88235283
23.19768715	1.17647064
23.20177650	1.60784316
23.20615768	3.41176462
23.21026230	2.11764717
23.21413803	2.54901958
23.21845436	2.76470590
23.21845436	1.23529410
23.22285271	2.50980401
23.22709656	4.09803915
23.23080826	2.70588231
23.23080826	2.37254906
23.23556709	3.05882359
23.23970413	2.13725495
23.24336624	1.54901958
23.24336624	3.23529410
23.24688148	3.92156863
23.25095177	2.52941179
23.25503159	3.50980401
23.25908661	1.78431368
23.26324081	2.31372547
23.26324081	4.11764717
23.26728630	3.47058821
23.27139854	2.60784316
23.27551270	2.96078420
23.27551270	3.01960778
23.27960014	1.41176474
23.28369522	2.64705873
23.28778267	4.11764717
23.28778267	2.64705873
23.29188728	2.37254906
23.29598427	3.07843137
23.30109596	1.62745094
23.30471611	3.33333325
23.30842781	3.88235283
23.30842781	2.49019599
23.31235886	2.56862736
23.31646347	3.37254906
23.32056046	1.56862748
23.32056046	2.15686274
23.32463837	3.94117641
23.32876015	3.21568632
23.33283997	2.45098042
23.33283997	2.90196085
23.33689499	2.90196085
23.34125328	1.39215684
23.34515953	4.19607830
23.34947777	2.68627453
23.35362244	2.39215684
23.35362244	3.11764717
23.35769463	2.01960778
23.36156845	1.56862748
23.36569786	3.29411769
23.36569786	3.76470590
23.36978531	2.39215684
23.37380028	2.50980401
23.37792015	3.29411769
23.37792015	1.47058821
23.38200760	2.07843137
23.38612747	3.82352948
23.39016724	2.33333325
23.39427185	2.74509811
23.39841652	2.70588231
23.39841652	1.29411769
23.40247154	2.60784316
23.40659142	4.03921556
23.41136742	2.49019599
23.41136742	2.21568632
23.41540718	2.94117641
23.41952705	1.84313726
23.42362404	1.47058821
23.42362404	3.19607854
23.42708778	3.62745094
23.43114281	2.31372547
23.43521500	3.15686274
23.43931961	1.31372547
23.44344711	1.98039210
23.44344711	3.74509811
23.44755173	2.86274505
23.45192719	2.17647052
23.45602226	2.64705873
23.45602226	2.54901958
23.46013451	1.15686274
23.46413994	2.54901958
23.46957970	3.92156863
23.46957970	2.41176462
23.47339821	2.11764717
23.47701836	2.84313726
23.48078728	1.33333337
23.48572731	3.05882359
23.48925781	3.39215684
23.48925781	2.07843137
23.49280548	2.21568632
23.49673653	2.98039222
23.50079918	1.11764705
23.50079918	1.86274505
23.50485420	3.64705873
23.50897598	2.80392146
23.51321983	2.19607854
23.51321983	2.64705873
23.51719284	2.45098042
23.52158356	1.11764705
23.52158356	2.47058821
23.52563858	3.70588231
23.52945518	2.13725495
23.53388786	1.90196073
23.53388786	2.64705873
23.53793526	1.45098042
23.54241562	1.21568632
23.54650307	3.00000000
23.54650307	3.23529410
23.54999352	1.98039210
23.55408859	2.17647052
23.55818558	2.86274505
23.55818558	1.03921568
23.56222343	1.82352936
23.56636810	3.56862736
23.56636810	2.56862736
23.57045746	1.94117641
23.57447815	2.41176462
23.57882881	2.13725495
23.57882881	0.90196079
23.58294868	2.33333325
23.58702850	3.62745094
23.59112549	2.17647052
23.59112549	2.00000000
23.59521294	2.78431368
23.59966850	1.45098042
23.60383987	1.25490201
23.60383987	2.94117641
23.60791779	3.01960778
23.61201477	1.72549021
23.61201477	1.86274505
23.61610985	2.45098042
23.62028122	0.62745100
23.62439346	1.37254906
23.62439346	3.07843137
23.62802124	2.00000000
23.63206100	1.39215684
23.63619804	1.90196073
23.63619804	1.62745094
23.64018631	0.47058824
23.64428329	1.96078432
23.64838791	3.19607854
23.64838791	1.66666663
23.65240860	1.45098042
23.65642357	2.29411769
23.65642357	0.88235295
23.66052818	0.82352942
23.66466522	2.68627453
23.66876030	2.78431368
23.66876030	1.66666663
23.67313576	2.00000000
23.67743683	2.68627453
23.68108940	0.84313726
23.68108940	1.82352936
23.68512726	3.66666675
23.68920708	2.52941179
23.69333649	2.60784316
23.69744110	2.19607854
23.70183945	1.07843137
23.70183945	2.62745094
23.70589447	3.80392146
23.71000671	2.29411769
23.71383286	2.15686274
23.71383286	3.09803915
23.71815872	1.66666663
23.72240257	1.66666663
23.72680855	3.49019599
23.72680855	3.43137264
23.73066711	2.29411769
23.73520660	2.58823538
23.73892593	1.33333337
23.74338150	2.39215684
23.74665833	4.19607830
23.74665833	3.05882359
23.75068092	2.56862736
23.75486755	3.17647052
23.75882339	2.72549009
23.75882339	1.64705884
23.76306725	3.21568632
23.76706505	4.33333349
23.77116966	2.82352948
23.77116966	2.66666675
23.77553558	3.54901958
23.77930260	2.01960778
23.78375244	3.88235283
23.78781509	3.78431368
23.79171371	2.70588231
23.79171371	3.01960778
23.79631042	3.49019599
23.80095482	1.66666663
23.80459976	2.66666675
23.80459976	4.33333349
23.80898285	3.05882359
23.81216240	2.58823538
23.81627464	3.15686274
23.81627464	2.62745094
23.82028008	1.66666663
23.82436752	3.27450991
23.82852173	2.72549009
23.83260918	2.56862736
23.83701515	3.39215684
23.83701515	1.74509799
23.84107971	1.86274505
23.84517479	3.62745094
23.84905052	3.41176462
23.84905052	2.35294127
23.85308075	2.66666675
23.85721016	3.07843137
23.86133003	1.29411769
23.86133003	2.31372547
23.86541748	4.01960802
23.86946487	2.70588231
23.87355995	2.84313726
23.87761497	2.23529410
23.88175201	1.31372547
23.88175201	2.94117641
23.88579178	3.88235283
23.89007568	2.39215684
23.89412308	2.31372547
23.89412308	3.19607854
23.89816856	1.56862748
23.90226555	1.76470590
23.90660667	3.56862736
23.90660667	3.29411769
23.91094971	2.33333325
23.91477394	2.72549009
23.91908264	1.45098042
23.92280197	2.58823538
23.92692375	4.21568632
23.92692375	2.84313726
23.93092155	2.41176462
23.93497658	2.96078420
23.93913841	2.21568632
23.93913841	1.33333337
23.94320869	2.92156863
23.94732094	3.78431368
23.95145035	2.23529410
23.95145035	2.11764717
23.95572662	2.96078420
23.95960045	1.27450979
23.96374702	3.29411769
23.96789932	2.90196085
23.97296143	1.94117641
23.97296143	2.31372547
23.97618103	2.60784316
23.98037529	0.92156863
23.98425102	2.03921580
23.98425102	3.70588231
23.98833084	2.35294127
23.99241829	1.96078432
23.99649048	2.56862736
23.99649048	1.84313726
24.00053596	1.07843137
24.00465775	2.70588231
24.00465775	3.56862736
24.00878525	2.11764717
24.01284027	2.09803915
24.01695251	3.01960778
24.01695251	1.33333337
24.02117157	1.68627453
24.02535057	3.49019599
24.02928162	3.01960778
24.02928162	2.09803915
24.03382874	2.47058821
24.03848267	2.68627453
24.04204559	1.00000000
24.04204559	2.17647052
24.04574013	3.76470590
24.04981232	2.33333325
24.04981232	1.96078432
24.05388260	2.60784316
24.05787277	1.80392158
24.06200981	1.09803927
24.06200981	2.78431368
24.06614685	3.56862736
24.07018471	2.13725495
24.07431412	2.13725495
24.07431412	2.98039222
24.07837677	1.23529410
24.08274269	1.60784316
24.08666801	3.37254906
24.08666801	2.86274505
24.09090233	2.00000000
24.09503174	2.37254906
24.09503174	2.58823538
24.09888077	0.96078432
24.10303497	2.13725495
24.10758972	3.70588231
24.10758972	2.25490189
24.11120224	1.92156863
24.11525726	2.60784316
24.11943436	1.70588231
24.11943436	1.09803927
24.12343216	2.84313726
24.12755394	3.56862736
24.13166618	2.13725495
24.13166618	2.23529410
24.13575363	3.15686274
24.13984108	1.43137252
24.13984108	1.92156863
24.14391327	3.76470590
24.14805794	3.19607854
24.15213776	2.39215684
24.15213776	2.82352948
24.15620041	2.92156863
24.16030502	1.33333337
24.16444206	2.64705873
24.16444206	4.25490189
24.16916847	2.76470590
24.17321587	2.56862736
24.17738533	3.41176462
24.17738533	2.52941179
24.18085861	2.05882359
24.18487358	3.88235283
24.18487358	4.49019623
24.18897629	3.07843137
24.19313049	3.11764717
24.19721031	3.94117641
24.19721031	2.03921580
24.20126534	2.56862736
24.20536041	4.33333349
24.20944977	3.54901958
24.20944977	2.74509811
24.21356964	3.13725495
24.21796036	3.13725495
24.22204781	2.94117641
24.22605324	4.43137264
24.23002815	2.90196085
24.23002815	2.58823538
24.23466301	3.25490189
24.23876762	2.15686274
24.24291420	1.70588231
24.24291420	3.45098042
24.24644470	3.94117641
24.25047493	2.56862736
24.25455475	2.66666675
24.25455475	3.52941179
24.25860977	1.70588231
24.26272964	2.33333325
24.26681709	3.47058821
24.27089691	2.80392146
24.27530479	3.29411769
24.27530479	3.29411769
24.27933502	1.86274505
24.28347969	3.29411769
24.28759193	4.76470566
24.28759193	3.23529410
24.29167938	3.01960778
24.29644012	3.74509811
24.30086327	2.62745094
24.30086327	2.23529410
24.30504990	3.98039222
24.30920219	4.43137264
24.31195641	3.23529410
24.31599426	4.03921556
24.32013893	2.25490189
24.32013893	2.96078420
24.32415390	4.58823538
24.32824135	3.78431368
24.33238602	3.13725495
24.33238602	3.43137264
24.33673668	3.31372547
24.34083176	1.98039210
24.34495354	3.37254906
24.34495354	4.74509811
24.34876251	3.23529410
24.35282516	2.92156863
24.35692978	2.27450991
24.36101723	1.78431368
24.36513710	3.35294127
24.36513710	3.56862736
24.36920166	2.17647052
24.37331390	2.13725495
24.37741852	2.72549009
24.37741852	0.84313726
24.38154602	1.43137252
24.38569260	3.00000000
24.38970566	2.03921580
24.38970566	1.33333337
24.39401436	1.64705884
24.39796257	1.41176474
24.40220642	1.41176474
24.40644264	2.68627453
24.41033363	1.25490201
24.41033363	1.01960790
24.41456795	1.72549021
24.41883659	0.52941179
24.42327690	0.27450982
24.42327690	1.88235295
24.42665100	2.17647052
24.43069839	0.96078432
24.43475342	1.07843137
24.43475342	1.68627453
24.43886566	0.00000000
24.44297028	0.56862748
24.44714737	1.31372547
24.45143318	0.66666669
24.45555305	1.07843137
24.45555305	0.94117647
24.45963287	0.00000000
24.46344185	1.07843137
24.46783257	2.35294127
24.46783257	1.01960790
24.47299385	0.90196079
24.47638512	1.70588231
24.47992516	0.64705884
24.47992516	0.54901963
24.48453712	2.27450991
24.48865700	2.54901958
24.49288368	1.56862748
24.49627495	2.19607854
24.50034714	0.49019608
24.50034714	1.21568632
24.50440216	2.90196085
24.50848198	2.00000000
24.51263428	1.47058821
24.51263428	1.94117641
24.51670647	1.74509799
24.52108955	0.60784316
24.52517700	1.96078432
24.52517700	3.19607854
24.52928162	1.78431368
24.53345108	1.56862748
24.53345108	2.29411769
24.53739929	1.09803927
24.54248619	1.00000000
24.54654884	2.66666675
24.54654884	2.88235283
24.54953194	1.78431368
24.55357933	2.00000000
24.55764961	2.58823538
24.55764961	0.88235295
24.56172943	1.66666663
24.56585884	3.33333325
24.56995392	2.43137264
24.56995392	1.96078432
24.57432938	2.49019599
24.57842445	2.23529410
24.57842445	1.19607842
24.58254623	2.58823538
24.58660126	3.72549009
24.59075356	2.39215684
24.59075356	2.19607854
24.59510422	2.94117641
24.59926605	1.74509799
24.60347557	1.66666663
24.60347557	3.29411769
24.60764503	3.43137264
24.61097145	2.41176462
24.61506844	2.62745094
24.61506844	3.15686274
24.61912346	1.50980389
24.62321091	2.33333325
24.62321091	3.94117641
24.62729073	3.01960778
24.63140297	2.56862736
24.63555527	3.09803915
24.63555527	2.84313726
24.63987350	1.88235295
24.64395332	3.31372547
24.64796638	4.47058821
24.64796638	3.19607854
24.65215302	3.05882359
24.65679741	3.82352948
24.66097641	2.62745094
24.66097641	2.56862736
24.66454697	4.15686274
24.66931534	4.17647076
24.66931534	3.11764717
24.67345238	3.23529410
24.67757225	3.64705873
24.68062019	1.98039210
24.68062019	2.72549009
24.68465042	4.27450991
24.68872261	3.31372547
24.69283485	2.82352948
24.69283485	3.23529410
24.69700432	2.86274505
24.70104218	1.82352936
24.70545006	3.05882359
24.70545006	4.01960802
24.70950508	2.72549009
24.71334648	2.49019599
24.71334648	3.09803915
24.71771431	1.82352936
24.72177696	1.74509799
24.72633171	3.19607854
24.72633171	3.17647052
24.73005867	2.19607854
24.73474503	2.41176462
24.73886490	2.82352948
24.73886490	1.31372547
24.74298668	2.01960778
24.74655724	3.47058821
24.75022697	2.07843137
24.75431442	2.45098042
24.75837898	2.05882359
24.75837898	1.13725495
24.76245880	2.37254906
24.76658630	3.31372547
24.77069092	2.13725495
24.77069092	2.00000000
24.77506638	2.62745094
24.77913666	1.45098042
24.78328133	1.41176474
24.78328133	2.82352948
24.78732872	2.80392146
24.79143333	1.90196073
24.79549599	2.47058821
24.79945374	1.11764705
24.80350876	1.90196073
24.80350876	3.33333325
24.80759621	2.54901958
24.81162643	2.13725495
24.81575584	2.52941179
24.81575584	2.17647052
24.81980133	1.35294116
24.82389832	2.50980401
24.82801819	3.47058821
24.82801819	2.39215684
24.83214760	2.23529410
24.83634949	2.90196085
24.84061050	1.78431368
24.84468079	3.15686274
24.84861374	3.15686274
24.84861374	2.33333325
24.85261154	2.49019599
24.85669899	2.86274505
24.86073685	1.52941179
24.86073685	2.21568632
24.86489105	3.60784316
24.86897850	2.88235283
24.87310791	2.54901958
24.87310791	3.00000000
24.87712097	2.72549009
24.88129997	2.03921580
24.88535500	4.13725471
24.88972855	3.15686274
24.89385033	3.07843137
24.89385033	3.66666675
24.89790535	2.60784316
24.90201759	2.60784316
24.90612984	3.88235283
24.90612984	3.88235283
24.91044617	3.15686274
24.91425514	3.27450991
24.91842651	3.54901958
24.91842651	2.31372547
24.92275047	2.92156863
24.92655945	4.17647076
24.93063927	3.03921580
24.93470383	3.39215684
24.93876648	3.09803915
24.93876648	2.35294127
24.94281387	3.47058821
24.94687653	4.29411745
24.95094872	3.31372547
24.95094872	3.25490189
24.95502663	3.82352948
24.95913124	2.76470590
24.96322823	2.80392146
24.96322823	4.05882359
24.96731567	3.96078420
24.97168159	3.27450991
24.97547531	3.56862736
24.97963715	2.33333325
24.98399353	2.88235283
24.98399353	3.98039222
24.98774719	3.07843137
24.99189186	2.60784316
24.99606133	2.84313726
24.99606133	2.35294127
25.00015640	1.56862748
25.00417137	2.50980401
25.00826645	3.17647052
25.00826645	2.09803915
25.01231384	1.88235295
25.01661491	2.35294127
25.02082634	1.19607842
25.02478981	2.37254906
25.02903366	2.23529410
25.02903366	1.54901958
25.03317833	1.74509799
25.03724289	1.96078432
25.04176521	0.80392158
25.04176521	1.47058821
25.04622078	2.68627453
25.04947281	1.94117641
25.05336380	1.66666663
25.05336380	2.07843137
25.05748558	1.72549021
25.06149864	1.15686274
25.06149864	2.23529410
25.06561852	2.98039222
25.06968307	2.09803915
25.07380295	2.07843137
25.07380295	2.74509811
25.07807922	1.76470590
25.08231544	1.90196073
25.08628845	3.13725495
25.08628845	2.74509811
25.09024429	2.19607854
25.09452057	2.27450991
25.09840393	2.31372547
25.09840393	1.25490201
25.10285187	2.03921580
25.10723495	3.31372547
25.10723495	2.66666675
25.11122513	2.45098042
25.11495972	2.76470590
25.11908913	2.25490189
25.11908913	1.52941179
25.12308693	2.49019599
25.12714958	3.05882359
25.13126183	2.03921580
25.13126183	1.90196073
25.13530922	2.43137264
25.13931465	1.29411769
25.14342690	1.33333337
25.14342690	2.39215684
25.14755630	2.21568632
25.15163612	1.56862748
25.15163612	1.78431368
25.15571594	2.00000000
25.15981102	1.00000000
25.16394806	1.74509799
25.16394806	2.96078420
25.16802788	2.13725495
25.17244339	1.86274505
25.17623520	2.21568632
25.17623520	1.78431368
25.18025017	1.29411769
25.18438721	2.35294127
25.18849945	2.96078420
25.18849945	2.07843137
25.19257927	2.00000000
25.19679070	2.50980401
25.19679070	1.45098042
25.20108223	1.58823526
25.20516968	2.86274505
25.20928192	2.78431368
25.20928192	2.29411769
25.21305084	2.56862736
25.21758842	2.74509811
25.22171021	1.70588231
25.22171021	2.33333325
25.22571564	3.33333325
25.22993469	2.47058821
25.23414612	2.11764717
25.23414612	2.41176462
25.23768425	1.98039210
25.24181366	1.45098042
25.24181366	2.52941179
25.24584389	3.17647052
25.24994850	2.37254906
25.25405121	2.23529410
25.25405121	2.76470590
25.25814056	1.58823526
25.26226044	1.64705884
25.26651955	2.80392146
25.26651955	2.60784316
25.27067375	2.07843137
25.27480125	2.39215684
25.27890587	1.72549021
25.28289604	2.43137264
25.28760719	3.43137264
25.28760719	2.54901958
25.29121017	2.15686274
25.29533958	2.47058821
25.29940224	1.86274505
25.29940224	1.37254906
25.30339241	2.41176462
25.30748749	2.94117641
25.31159210	2.07843137
25.31159210	2.05882359
25.31565475	2.64705873
25.31968689	1.50980389
25.32377434	2.96078420
25.32784462	2.72549009
25.33189201	2.17647052
25.33189201	2.45098042
25.33597946	2.62745094
25.34004402	1.68627453
25.34438515	2.54901958
25.34438515	3.68627453
25.34837532	2.94117641
25.35256004	2.68627453
25.35671425	3.17647052
25.35671425	2.60784316
25.36080933	2.23529410
25.36467743	3.39215684
25.36878014	3.09803915
25.37284470	3.07843137
25.37693977	3.58823538
25.37693977	2.41176462
25.38117599	2.68627453
25.38513947	3.90196085
25.38950729	3.58823538
25.38950729	3.11764717
25.39336586	3.35294127
25.39739609	3.41176462
25.40156555	2.45098042
25.40156555	3.25490189
25.40565300	4.25490189
25.41065788	3.37254906
25.41390228	3.52941179
25.41848183	2.90196085
25.42278290	2.49019599
25.42278290	3.62745094
25.42622375	4.07843161
25.43019676	3.27450991
25.43429184	3.23529410
25.43429184	3.74509811
25.43836403	2.58823538
25.44245911	2.86274505
25.44662857	4.00000000
25.44662857	3.64705873
25.45097923	3.13725495
25.45503426	3.29411769
25.45910645	2.23529410
25.46320915	2.92156863
25.46733093	3.84313726
25.46733093	2.94117641
25.47180367	2.64705873
25.47630882	3.03921580
25.48024178	2.39215684
25.48024178	2.03921580
25.48405075	3.07843137
25.48774529	3.49019599
25.49162865	2.66666675
25.49162865	2.64705873
25.49568367	3.05882359
25.49977112	1.92156863
25.50390816	3.23529410
25.50800323	2.78431368
25.51212502	2.23529410
25.51212502	2.33333325
25.51623726	2.23529410
25.52024269	1.29411769
25.52440453	2.01960778
25.52440453	2.96078420
25.52847481	2.07843137
25.53258896	1.84313726
25.53669167	2.25490189
25.53669167	1.54901958
25.54078865	1.23529410
25.54489326	2.29411769
25.54895592	1.96078432
25.55306053	2.00000000
25.55715561	2.47058821
25.55715561	1.41176474
25.56122780	1.66666663
25.56537247	2.76470590
25.56945229	2.31372547
25.56945229	1.82352936
25.57352257	2.00000000
25.57794762	1.98039210
25.58189583	1.11764705
25.58189583	1.90196073
25.58613014	2.86274505
25.59022713	2.05882359
25.59022713	1.82352936
25.59432220	2.23529410
25.59840202	1.56862748
25.60228539	1.29411769
25.60228539	2.33333325
25.60644722	2.68627453
25.61061668	1.92156863
25.61454964	1.90196073
25.61454964	2.27450991
25.61865234	1.09803927
25.62264252	1.33333337
25.62676239	2.39215684
25.62676239	1.94117641
25.63087654	1.49019611
25.63500404	1.70588231
25.63500404	1.70588231
25.63912582	0.88235295
25.64348221	1.68627453
25.64736557	2.66666675
25.64736557	1.90196073
25.65157700	1.70588231
25.65575409	2.23529410
25.65972710	1.62745094
25.65972710	1.43137252
25.66374207	2.47058821
25.66784668	2.78431368
25.67317963	2.03921580
25.67317963	2.01960778
25.67671776	2.43137264
25.68029022	1.37254906
25.68029022	1.68627453
25.68419647	2.82352948
25.68821144	2.45098042
25.69233131	2.07843137
25.69233131	2.33333325
25.69642067	2.33333325
25.70055771	1.58823526
25.70464516	2.31372547
25.70464516	3.17647052
25.70895386	2.37254906
25.71311569	2.19607854
25.71726036	2.62745094
25.71726036	1.96078432
25.72130775	1.78431368
25.72542763	2.88235283
25.72542763	3.19607854
25.73003197	2.54901958
25.73401260	2.60784316
25.73852730	3.01960778
25.73852730	1.98039210
25.74267197	2.35294127
25.74684906	3.47058821
25.75025749	3.05882359
25.75025749	2.68627453
25.75385475	2.98039222
25.75786018	2.98039222
25.76195526	2.27450991
25.76195526	3.11764717
25.76609230	4.05882359
25.77020454	3.35294127
25.77020454	3.21568632
25.77429390	3.70588231
25.77836418	3.01960778
25.78277969	2.84313726
25.78277969	3.84313726
25.78685188	4.03921556
25.79095459	3.29411769
25.79505920	3.29411769
25.79505920	3.62745094
25.79947472	2.54901958
25.80429268	2.88235283
25.80791283	3.37254906
25.81120682	2.96078420
25.81532669	3.13725495
25.81532669	2.96078420
25.81937408	2.21568632
25.82341194	2.96078420
25.82753372	3.76470590
25.82753372	2.98039222
25.83169365	2.72549009
25.83574104	3.11764717
25.83985329	2.31372547
25.83985329	2.05882359
25.84401512	3.01960778
25.84801292	3.13725495
25.85232162	2.45098042
25.85615540	2.74509811
25.86030960	1.68627453
25.86030960	2.03921580
25.86453629	3.05882359
25.86856651	2.54901958
25.87262154	2.13725495
25.87262154	2.35294127
25.87673378	2.15686274
25.88081360	1.43137252
25.88495827	2.19607854
25.88495827	2.94117641
25.88898849	2.13725495
25.89304352	1.94117641
25.89725494	1.64705884
25.90128517	1.47058821
25.90537262	2.45098042
25.90537262	2.56862736
25.90943718	1.88235295
25.91354942	1.94117641
25.91769409	2.23529410
25.91769409	1.21568632
25.92174149	1.58823526
25.92584419	2.62745094
25.92994118	2.07843137
25.92994118	1.66666663
25.93480682	1.94117641
25.93882179	1.76470590
25.94224548	1.98039210
25.94632530	2.78431368
25.95042992	2.01960778
25.95042992	1.90196073
25.95450020	2.37254906
25.95858002	1.62745094
25.96269989	1.60784316
25.96269989	2.66666675
25.96711540	2.82352948
25.97094154	2.25490189
25.97533226	2.33333325
25.97533226	2.62745094
25.97942924	1.58823526
25.98347664	2.00000000
25.98739243	2.43137264
25.99277306	2.07843137
25.99608231	2.37254906
25.99608231	2.17647052
26.00024414	1.56862748
26.00376701	2.43137264
26.00778961	3.17647052
26.00778961	2.39215684
26.01190948	2.25490189
26.01595688	2.78431368
26.02006149	1.94117641
26.02006149	1.94117641
26.02412415	2.98039222
26.02834320	3.05882359
26.03266907	2.58823538
26.03645325	2.88235283
26.04083633	1.90196073
26.04083633	2.37254906
26.04489899	3.37254906
26.04901123	2.72549009
26.05297661	2.35294127
26.05297661	2.54901958
26.05757141	2.25490189
26.06111145	1.64705884
26.06526375	2.49019599
26.06526375	3.19607854
26.06923866	2.49019599
26.07330132	2.43137264
26.07738876	2.15686274
26.08150864	2.17647052
26.08561325	3.19607854
26.08561325	3.19607854
26.08968544	2.60784316
26.09407616	2.68627453
26.09799957	2.88235283
26.09799957	1.94117641
26.10222626	2.41176462
26.10629845	3.41176462
26.11103249	2.82352948
26.11103249	2.54901958
26.11456490	2.82352948
26.11967659	2.56862736
26.11967659	2.01960778
26.12346077	2.88235283
26.12723732	3.52941179
26.13089943	2.72549009
26.13089943	2.62745094
26.13474846	3.03921580
26.13894272	2.15686274
26.14296532	2.11764717
26.14296532	3.09803915
26.14705276	3.03921580
26.15114212	2.41176462
26.15526199	2.47058821
26.15526199	2.64705873
26.15953827	1.64705884
26.16347122	2.07843137
26.16347122	3.05882359
26.16776276	2.37254906
26.17185974	1.98039210
26.17595482	2.19607854
26.17595482	1.84313726
26.18005943	1.23529410
26.18410683	2.05882359
26.18822670	2.74509811
26.18822670	2.07843137
26.19215012	2.07843137
26.19622231	2.70588231
26.20033455	1.94117641
26.20033455	2.13725495
26.20441437	3.19607854
26.20852661	3.27450991
26.20852661	2.80392146
26.21256447	2.94117641
26.21668625	3.19607854
26.22075653	2.29411769
26.22075653	2.86274505
26.22485352	3.84313726
26.22894859	3.27450991
26.23346329	3.05882359
26.23346329	3.33333325
26.23736954	3.00000000
26.24154854	2.52941179
26.24592209	3.31372547
26.24592209	3.84313726
26.25002670	3.05882359
26.25409889	2.86274505
26.25409889	3.29411769
26.25768661	2.33333325
26.26180649	2.33333325
26.26583672	3.29411769
26.26583672	3.19607854
26.26990891	2.68627453
26.27399635	2.76470590
26.27843666	2.88235283
26.27843666	1.96078432
26.28223801	2.45098042
26.28659630	3.35294127
26.29073334	2.66666675
26.29073334	2.35294127
26.29478073	2.56862736
26.29869652	2.17647052
26.29869652	1.66666663
26.30337334	2.43137264
26.30746841	2.96078420
26.31159782	2.19607854
26.31159782	2.07843137
26.31571007	2.47058821
26.31920052	1.52941179
26.32323837	1.52941179
26.32323837	2.43137264
26.32728577	2.29411769
26.33139038	1.76470590
26.33548546	1.94117641
26.33955765	1.07843137
26.34396553	1.58823526
26.34396553	2.50980401
26.34777451	1.88235295
26.35214043	1.66666663
26.35622787	1.98039210
26.35622787	1.62745094
26.36030769	1.21568632
26.36424828	2.03921580
26.36908913	2.56862736
26.36908913	1.82352936
26.37344742	1.76470590
26.37726593	2.21568632
26.38059044	1.45098042
26.38479424	2.49019599
26.38876724	2.37254906
26.38876724	1.92156863
26.39287186	2.00000000
26.39690971	2.11764717
26.40102959	1.31372547
26.40102959	1.84313726
26.40513420	2.80392146
26.40919685	2.25490189
26.41357994	2.09803915
26.41357994	2.50980401
26.41770172	2.11764717
26.42175674	1.64705884
26.42590904	2.86274505
26.43062019	2.07843137
26.43480492	1.98039210
26.43480492	2.39215684
26.43816376	1.45098042
26.44260406	1.54901958
26.44725800	2.62745094
26.44725800	2.54901958
26.45069885	2.19607854
26.45439339	2.35294127
26.45839882	2.47058821
26.45839882	1.70588231
26.46251869	2.25490189
26.46655846	3.03921580
26.47067070	2.03921580
26.47473335	2.35294127
26.47886276	1.70588231
26.47886276	1.09803927
26.48326111	1.80392158
26.48730850	1.98039210
26.49140358	1.17647064
26.49140358	1.15686274
26.49552536	1.66666663
26.49976921	0.82352942
26.50501060	1.17647064
26.50501060	2.25490189
26.50827980	2.09803915
26.51296616	1.60784316
26.51643944	1.74509799
26.52004433	0.88235295
26.52413177	1.39215684
26.52413177	2.21568632
26.52812958	1.52941179
26.53223228	1.31372547
26.53627205	1.54901958
26.53627205	1.05882359
26.54027748	0.76470590
26.54435730	1.64705884
26.54846191	2.15686274
26.54846191	1.58823526
26.55254936	1.68627453
26.55666161	2.27450991
26.56072426	1.76470590
26.56489563	2.82352948
26.56892586	2.70588231
26.56892586	2.39215684
26.57333183	2.62745094
26.57755089	2.76470590
26.58172989	2.00000000
26.58172989	2.62745094
26.58566093	3.50980401
26.58947945	2.92156863
26.59363174	2.74509811
26.59363174	3.13725495
26.59762955	2.72549009
26.60184860	2.43137264
26.60583878	3.78431368
26.60990906	3.17647052
26.61404610	3.21568632
26.61404610	3.72549009
26.61845398	2.90196085
26.62247658	3.11764717
26.62660599	4.11764717
26.62660599	3.92156863
26.63064384	3.54901958
26.63515663	3.76470590
26.63908958	3.88235283
26.63908958	3.17647052
26.64410400	3.80392146
26.64724159	4.64705896
26.64724159	4.03921556
26.65146828	3.82352948
26.65516281	4.19607830
26.65920067	3.70588231
26.65920067	3.39215684
26.66320610	4.21568632
26.66726112	4.54901981
26.67140770	3.90196085
26.67140770	3.86274505
26.67547798	4.21568632
26.67955780	3.29411769
26.68398094	3.45098042
26.68398094	4.33333349
26.68802071	3.94117641
26.69186211	3.50980401
26.69186211	3.60784316
26.69617081	3.56862736
26.70008659	2.84313726
26.70414162	3.50980401
26.70414162	4.35294104
26.70822144	3.68627453
26.71239090	3.45098042
26.71647072	3.82352948
26.71647072	3.25490189
26.72055054	2.94117641
26.72461510	3.72549009
26.72877502	3.98039222
26.72877502	3.37254906
26.73283005	3.33333325
26.73694229	3.70588231
26.73694229	2.76470590
26.74099731	3.01960778
26.74511909	3.98039222
26.74924660	3.62745094
26.74924660	3.23529410
26.75325394	3.31372547
26.75739098	3.23529410
26.76153564	2.43137264
26.76153564	3.00000000
26.76561546	3.70588231
26.76973534	2.98039222
26.77383232	2.74509811
26.77383232	3.11764717
26.77788734	2.45098042
26.78198242	2.15686274
26.78198242	3.00000000
26.78612709	3.17647052
26.79018211	2.50980401
26.79426193	2.50980401
26.79426193	2.84313726
26.79838371	1.86274505
26.80238914	2.11764717
26.80652618	3.03921580
26.80652618	2.66666675
26.81059647	2.27450991
26.81478310	2.43137264
26.81883812	1.70588231
26.82307434	2.41176462
26.82713699	3.21568632
26.82713699	2.50980401
26.83124161	2.29411769
26.83535385	2.70588231
26.83946609	2.01960778
26.83946609	1.76470590
26.84346390	2.58823538
26.84753418	2.78431368
26.85172081	2.13725495
26.85172081	2.15686274
26.85579300	2.49019599
26.85979843	1.56862748
26.86388588	2.88235283
26.86799049	2.47058821
26.87215233	2.09803915
26.87215233	2.25490189
26.87615776	2.11764717
26.88027000	1.37254906
26.88439178	1.98039210
26.88439178	2.68627453
26.88844681	1.96078432
26.89252472	1.78431368
26.89665413	2.19607854
26.89665413	1.56862748
26.90075874	1.41176474
26.90485382	2.29411769
26.90899086	1.90196073
26.91302109	1.92156863
26.91715050	2.25490189
26.91715050	1.33333337
26.92120552	1.66666663
26.92553902	2.62745094
26.92954445	2.21568632
26.92954445	1.88235295
26.93372345	2.05882359
26.93778610	1.96078432
26.94202232	1.29411769
26.94202232	2.00000000
26.94596291	2.70588231
26.95006561	1.96078432
26.95413780	2.23529410
26.95821762	1.50980389
26.96232224	1.41176474
26.96232224	2.29411769
26.96644211	2.45098042
26.97048950	1.90196073
26.97456932	2.00000000
26.97456932	2.33333325
26.97867203	1.39215684
26.98276901	1.78431368
26.98680687	2.78431368
26.98680687	2.27450991
26.99088669	1.98039210
26.99499130	2.21568632
26.99915314	1.49019611
27.00351143	2.25490189
27.00731277	2.94117641
27.00731277	2.23529410
27.01135826	2.07843137
27.01573372	2.56862736
27.01985359	1.80392158
27.01985359	1.72549021
27.02363014	2.64705873
27.02773476	2.76470590
27.03183937	2.23529410
27.03183937	2.29411769
27.03590965	2.56862736
27.04000664	1.62745094
27.04413414	2.96078420
27.04828835	2.41176462
27.05230141	2.07843137
27.05230141	2.33333325
27.05639076	2.17647052
27.06053543	1.58823526
27.06472206	2.37254906
27.06472206	3.05882359
27.06890678	2.31372547
27.07313538	2.19607854
27.07730484	2.70588231
27.07730484	1.96078432
27.08107185	1.98039210
27.08520889	2.96078420
27.08921623	2.49019599
27.09327888	2.58823538
27.09741592	2.84313726
27.09741592	1.90196073
27.10149574	2.37254906
27.10588646	3.33333325
27.10998154	2.76470590
27.10998154	2.43137264
27.11384964	2.66666675
27.11790466	2.43137264
27.12199211	1.82352936
27.12199211	2.62745094
27.12611961	3.25490189
27.13025665	2.50980401
27.13429642	2.84313726
27.13838387	2.00000000
27.14309502	1.98039210
27.14309502	2.96078420
27.14730453	3.00000000
27.15136909	2.45098042
27.15547180	2.56862736
27.15547180	2.80392146
27.15893745	1.82352936
27.16293526	2.31372547
27.16703987	3.27450991
27.16703987	2.64705873
27.17112732	2.33333325
27.17528152	2.58823538
27.17528152	2.25490189
27.17931175	1.72549021
27.18374252	2.52941179
27.18782997	3.13725495
27.18782997	2.37254906
27.19190979	2.27450991
27.19600677	2.76470590
27.20011902	1.86274505
27.20011902	1.90196073
27.20414162	2.86274505
27.20857239	2.84313726
27.21239090	2.33333325
27.21239090	2.45098042
27.21675682	2.70588231
27.22048378	1.82352936
27.22048378	2.37254906
27.22455597	3.35294127
27.22856140	2.78431368
27.23265648	2.50980401
27.23265648	2.82352948
27.23672867	2.47058821
27.24080849	1.96078432
27.24489594	2.78431368
27.24489594	3.35294127
27.24900055	2.62745094
27.25316238	2.52941179
27.25718498	3.00000000
27.25718498	2.11764717
27.26124763	2.21568632
27.26544952	3.17647052
27.26544952	3.07843137
27.26943207	2.52941179
27.27377319	2.58823538
27.27786827	2.72549009
27.27786827	1.76470590
27.28176880	2.27450991
27.28610992	3.21568632
27.29023170	2.62745094
27.29023170	2.39215684
27.29455566	2.78431368
27.29846382	2.49019599
27.30263329	2.05882359
27.30263329	2.96078420
27.30634499	3.50980401
27.31043243	2.84313726
27.31043243	2.74509811
27.31451988	3.25490189
27.31858253	2.37254906
27.32271194	2.49019599
27.32271194	3.49019599
27.32678413	3.33333325
27.33089638	2.84313726
27.33531189	2.96078420
27.33531189	3.09803915
27.33939171	2.21568632
27.34347153	2.78431368
27.34766579	3.03921580
27.35208893	2.80392146
27.35625839	3.11764717
27.35625839	2.68627453
27.36060905	2.23529410
27.36426926	3.07843137
27.36834908	3.54901958
27.36834908	2.74509811
27.37246132	2.62745094
27.37597656	3.01960778
27.38010597	2.00000000
27.38010597	2.07843137
27.38413620	2.98039222
27.38825607	2.74509811
27.39234352	2.29411769
27.39646530	2.37254906
27.40086365	1.47058821
27.40086365	2.00000000
27.40473938	2.86274505
27.40900612	2.15686274
27.41311073	1.86274505
27.41311073	2.19607854
27.41721535	1.68627453
27.42172050	1.29411769
27.42519379	2.15686274
27.42519379	2.58823538
27.42919159	1.80392158
27.43334579	1.76470590
27.43741608	1.25490201
27.44147873	1.49019611
27.44557571	2.56862736
27.44557571	2.37254906
27.44971275	2.00000000
27.45373535	2.23529410
27.45788002	2.35294127
27.45788002	1.60784316
27.46192741	2.29411769
27.46617126	3.21568632
27.47015953	2.50980401
27.47015953	2.27450991
27.47424698	2.68627453
27.47835159	2.13725495
27.48244858	2.74509811
27.48651123	3.19607854
27.49064064	2.45098042
27.49064064	2.45098042
27.49471855	2.94117641
27.49883270	1.96078432
27.50296021	2.23529410
27.50296021	3.35294127
27.50707245	3.09803915
27.51114464	2.72549009
27.51528168	2.90196085
27.51528168	2.96078420
27.51933670	2.11764717
27.52339172	2.76470590
27.52749634	2.86274505
27.53169060	2.58823538
27.53574562	2.94117641
27.53574562	2.33333325
27.53980064	2.00000000
27.54391289	2.90196085
27.54808235	3.27450991
27.54808235	2.54901958
27.55216217	2.52941179
27.55623245	2.98039222
27.56028748	2.00000000
27.56028748	2.27450991
27.56437683	3.27450991
27.56848907	2.96078420
27.57255173	2.68627453
27.57665634	2.62745094
27.58075142	1.76470590
27.58075142	2.37254906
27.58485603	3.15686274
27.58895111	2.37254906
27.59313011	2.09803915
27.59313011	2.49019599
27.59715271	1.86274505
27.60124779	1.60784316
27.60535240	2.54901958
27.60535240	2.84313726
27.60939980	2.13725495
27.61349487	2.13725495
27.61766434	1.58823526
27.62167931	1.94117641
27.62582397	3.01960778
27.62582397	2.68627453
27.62991142	2.27450991
27.63401604	2.45098042
27.63812828	2.43137264
27.63812828	1.62745094
27.64221573	2.33333325
27.64632034	3.19607854
27.65044975	2.41176462
27.65044975	2.19607854
27.65445518	2.62745094
27.65861702	1.92156863
27.66269684	2.66666675
27.66681671	2.94117641
27.67090416	2.29411769
27.67090416	2.33333325
27.67493439	2.72549009
27.67907143	1.70588231
27.68316841	2.01960778
27.68316841	3.03921580
27.68728828	2.60784316
27.69137573	2.17647052
27.69548035	2.35294127
27.69548035	2.25490189
27.69956017	1.47058821
27.70366478	2.19607854
27.70366478	3.00000000
27.70771980	2.23529410
27.71179199	2.03921580
27.71598625	2.50980401
27.71598625	1.84313726
27.72000694	1.70588231
27.72412872	2.70588231
27.72823334	2.98039222
27.72823334	2.31372547
27.73232841	2.35294127
27.73640823	2.70588231
27.74053764	1.68627453
27.74053764	2.00000000
27.74463272	3.00000000
27.74875259	2.50980401
27.74875259	2.11764717
27.75280762	2.31372547
27.75689697	2.19607854
27.76104164	1.49019611
27.76104164	2.27450991
27.76515388	3.17647052
27.76917648	2.43137264
27.77328110	2.31372547
27.77328110	2.78431368
27.77737617	2.05882359
27.78149605	1.88235295
27.78559303	2.84313726
27.78559303	3.01960778
27.78963089	2.35294127
27.79375267	2.39215684
27.79375267	2.76470590
27.79783249	1.74509799
27.80191994	2.13725495
27.80605698	3.17647052
27.80605698	2.70588231
27.81017685	2.37254906
27.81421661	2.58823538
27.81831932	2.49019599
27.81831932	1.80392158
27.82241631	2.62745094
27.82655334	3.45098042
27.83068085	2.72549009
27.83068085	2.56862736
27.83473587	3.09803915
27.83886528	2.39215684
27.83886528	2.27450991
27.84296227	3.27450991
27.84702492	3.43137264
27.85114479	2.82352948
27.85114479	2.92156863
27.85523224	3.23529410
27.85933685	2.25490189
27.86343384	2.70588231
27.86343384	3.70588231
27.86752892	3.21568632
27.87162590	2.86274505
27.87569618	2.88235283
27.87978363	2.17647052
27.88392067	2.96078420
27.88392067	3.74509811
27.88800049	2.94117641
27.89210510	2.78431368
27.89622498	3.25490189
27.89622498	2.49019599
27.90028954	2.41176462
27.90430260	3.35294127
27.90843964	3.45098042
27.90843964	2.86274505
27.91250420	2.92156863
27.91664886	3.17647052
27.92074394	2.56862736
27.92484093	3.52941179
27.92894554	2.96078420
27.92894554	2.58823538
27.93298340	2.76470590
27.93708801	2.54901958
27.94128227	1.88235295
27.94128227	2.62745094
27.94533730	3.31372547
27.94945717	2.49019599
27.95383263	2.31372547
27.95383263	2.74509811
27.95790291	1.90196073
27.96200752	1.80392158
27.96598053	2.80392146
27.96989632	2.17647052
27.97400856	2.25490189
27.97400856	2.52941179
27.97814560	1.54901958
27.98220062	2.00000000
27.98632050	3.03921580
27.98632050	2.50980401
27.99041748	2.23529410
27.99452209	2.47058821
27.99863434	2.29411769
27.99863434	1.74509799
28.00269699	2.56862736
28.00678444	3.27450991
28.01089668	2.37254906
28.01501846	2.86274505
28.01937675	2.01960778
28.01937675	2.00000000
28.02340698	3.00000000
28.02755165	3.03921580
28.03137779	2.49019599
28.03137779	2.60784316
28.03575134	2.80392146
28.03999519	1.84313726
28.04383659	2.27450991
28.04383659	3.19607854
28.04788399	2.56862736
28.05249596	2.23529410
28.05657578	2.19607854
28.06021309	1.64705884
28.06419373	2.49019599
28.06419373	3.15686274
28.06829834	2.35294127
28.07231331	2.25490189
28.07642555	2.72549009
28.07642555	1.84313726
28.08050537	1.80392158
28.08464241	2.78431368
28.08870506	2.74509811
28.08870506	2.17647052
28.09280014	2.25490189
28.09693718	2.50980401
28.10101700	2.09803915
28.10516357	3.11764717
28.10922623	2.52941179
28.10922623	2.25490189
28.11327362	2.54901958
28.11741829	2.23529410
28.12152290	1.68627453
28.12152290	2.54901958
28.12556839	3.11764717
28.12965775	2.31372547
28.13381004	2.21568632
28.13381004	2.64705873
28.13787270	1.74509799
28.14196205	1.82352936
28.14636040	2.80392146
28.15016937	2.35294127
28.15455246	2.49019599
28.15455246	2.70588231
28.15863228	1.78431368
28.16261292	2.31372547
28.16661835	3.21568632
28.16661835	2.49019599
28.17084694	2.17647052
28.17538452	2.47058821
28.17888260	2.05882359
28.17888260	1.62745094
28.18297005	2.56862736
28.18703270	3.21568632
28.19112968	2.50980401
28.19520187	3.01960778
28.19932938	2.05882359
28.19932938	2.17647052
28.20371246	3.19607854
28.20779991	3.05882359
28.21158409	2.56862736
28.21158409	2.64705873
28.21568871	2.78431368
28.21973610	1.86274505
28.22393036	2.37254906
28.22393036	3.29411769
28.22795296	2.64705873
28.23230171	2.37254906
28.23230171	2.68627453
28.23612785	2.23529410
28.24021530	1.76470590
28.24434471	2.60784316
28.24434471	3.11764717
28.24844170	2.39215684
28.25251961	2.29411769
28.25660896	2.74509811
28.25660896	1.82352936
28.26075363	1.92156863
28.26480865	2.92156863
28.26894569	2.78431368
28.26894569	2.29411769
28.27299309	2.43137264
28.27745628	2.56862736
28.27745628	1.66666663
28.28142166	2.23529410
28.28582001	3.13725495
28.28997421	2.50980401
28.28997421	2.27450991
28.29406166	2.45098042
28.29796219	2.01960778
28.30233574	1.52941179
28.30233574	2.33333325
28.30639839	2.76470590
28.31009293	2.05882359
28.31422234	2.05882359
28.31422234	2.56862736
28.31829453	1.68627453
28.32229996	1.88235295
28.32229996	2.92156863
28.32633781	2.72549009
28.33047485	2.23529410
28.33450508	2.37254906
28.33450508	2.49019599
28.33858490	1.64705884
28.34267426	2.25490189
28.34679413	3.21568632
28.34679413	2.52941179
28.35088158	2.31372547
28.35495377	2.66666675
28.35913086	2.17647052
28.35913086	1.80392158
28.36318588	2.68627453
28.36729813	3.17647052
28.36729813	2.47058821
28.37137794	2.43137264
28.37545776	2.90196085
28.37955284	1.94117641
28.37955284	2.11764717
28.38366699	3.07843137
28.38772964	2.84313726
28.39184952	2.39215684
28.39184952	2.49019599
28.39592171	2.56862736
28.40005112	1.72549021
28.40439987	3.25490189
28.40845490	2.54901958
28.41259193	2.31372547
28.41259193	2.70588231
28.41663933	2.17647052
28.42074394	1.84313726
28.42483139	2.72549009
28.42483139	3.13725495
28.42894363	2.33333325
28.43303871	2.29411769
28.43699646	2.74509811
28.43699646	1.76470590
28.44105911	2.03921580
28.44521332	3.15686274
28.44929314	2.60784316
28.45328140	2.84313726
28.45738602	2.90196085
28.45738602	2.13725495
28.46145821	2.74509811
28.46560287	3.62745094
28.46997643	2.98039222
28.46997643	2.76470590
28.47405624	3.17647052
28.47814369	2.66666675
28.48197746	2.39215684
28.48197746	3.35294127
28.48630333	3.72549009
28.49104691	3.05882359
28.49434853	3.49019599
28.49840355	2.54901958
28.50245857	2.84313726
28.50245857	3.84313726
28.50652885	3.52941179
28.51063347	3.15686274
28.51476288	3.31372547
28.51476288	3.31372547
28.51912117	2.56862736
28.52293777	3.23529410
28.52733803	4.11764717
28.52733803	3.37254906
28.53110504	3.15686274
28.53681564	3.50980401
28.53948593	2.47058821
28.54420471	3.27450991
28.54812050	3.50980401
28.54812050	2.74509811
28.55252838	2.66666675
28.55695152	3.03921580
28.56103897	2.01960778
28.56103897	2.23529410
28.56393051	3.17647052
28.56798553	2.76470590
28.57214737	2.29411769
28.57214737	2.41176462
28.57616234	2.29411769
28.58032417	1.49019611
28.58441162	2.98039222
28.58845711	2.17647052
28.59255409	1.96078432
28.59255409	2.33333325
28.59664154	1.64705884
28.60077095	1.41176474
28.60513687	2.27450991
28.60513687	2.54901958
28.60978127	1.88235295
28.61392784	1.90196073
28.61773682	2.29411769
28.61773682	1.31372547
28.62188911	1.60784316
28.62542915	2.62745094
28.62947464	1.86274505
28.63350487	2.09803915
28.63764191	2.01960778
28.63764191	1.33333337
28.64172173	2.09803915
28.64582634	2.94117641
28.65024185	2.25490189
28.65024185	2.07843137
28.65423203	2.54901958
28.65841675	1.88235295
28.66249657	1.68627453
28.66249657	2.64705873
28.66640472	2.88235283
28.67116356	2.23529410
28.67553902	2.64705873
28.67870903	1.60784316
28.68278122	1.92156863
28.68278122	2.88235283
28.68678665	2.39215684
28.69086647	2.01960778
28.69501114	2.21568632
28.69501114	2.05882359
28.69910812	1.35294116
28.70315361	2.05882359
28.70722580	2.80392146
28.70722580	1.98039210
28.71135521	1.78431368
28.71549225	2.17647052
28.71549225	1.41176474
28.71952248	1.25490201
28.72378922	2.13725495
28.72850800	2.25490189
28.72850800	1.56862748
28.73194885	1.58823526
28.73657799	1.88235295
28.74012375	0.84313726
28.74012375	1.19607842
28.74422073	2.17647052
28.74821091	1.66666663
28.75234795	1.35294116
28.75234795	1.60784316
28.75641060	1.43137252
28.76050568	0.82352942
28.76050568	1.62745094
28.76461792	2.39215684
28.76901054	1.66666663
28.77304840	1.54901958
28.77304840	2.00000000
28.77716827	1.27450979
28.78101158	1.17647064
28.78516388	2.11764717
28.78516388	2.11764717
28.78920364	1.29411769
28.79329109	1.49019611
28.79745293	1.64705884
28.79745293	0.60784316
28.80149078	1.09803927
28.80562019	2.17647052
28.80562019	1.62745094
28.80965805	1.33333337
28.81380272	1.56862748
28.81785011	1.29411769
28.81785011	0.68627453
28.82195473	1.49019611
28.82605934	2.15686274
28.83016205	1.41176474
28.83016205	1.31372547
28.83456993	1.86274505
28.83864975	1.07843137
28.84262276	1.15686274
28.84262276	2.17647052
28.84667778	2.29411769
28.85065842	1.76470590
28.85065842	1.98039210
28.85471344	2.37254906
28.85879326	1.49019611
28.86291504	2.07843137
28.86291504	3.17647052
28.86700249	2.54901958
28.87112236	2.23529410
28.87517738	2.56862736
28.87517738	2.31372547
28.87929916	1.80392158
28.88341904	2.78431368
28.88747406	3.52941179
28.88747406	2.78431368
28.89159393	2.74509811
28.89600945	3.35294127
28.89600945	2.50980401
28.90004921	2.58823538
28.90418625	3.66666675
28.90819168	3.60784316
28.90819168	3.01960778
28.91254997	3.15686274
28.91636658	3.37254906
28.92088127	2.37254906
28.92088127	3.00000000
28.92441940	4.05882359
28.92849922	3.37254906
28.93256378	3.49019599
28.93664169	3.15686274
28.94077110	2.66666675
28.94077110	3.62745094
28.94486809	4.23529434
28.94900513	3.43137264
28.95331383	3.33333325
28.95331383	3.88235283
28.95711517	2.88235283
28.96127510	2.96078420
28.96537209	4.01960802
28.96537209	3.84313726
28.96948433	3.25490189
28.97484207	3.35294127
28.97811127	2.49019599
28.98197746	3.11764717
28.98608971	4.11764717
28.98608971	3.33333325
28.99011993	3.05882359
28.99405289	3.41176462
28.99818993	3.00000000
28.99818993	2.50980401
29.00219536	3.47058821
29.00629997	4.05882359
29.01038742	3.25490189
29.01038742	3.19607854
29.01452446	3.72549009
29.01892281	2.70588231
29.02269936	3.90196085
29.02674675	3.64705873
29.03119469	3.09803915
29.03119469	3.23529410
29.03509331	3.41176462
29.04070473	2.45098042
29.04430962	3.11764717
29.04430962	4.15686274
29.04749680	3.39215684
29.05209160	3.11764717
29.05622864	3.45098042
29.05622864	2.94117641
29.06032562	2.47058821
29.06381607	3.41176462
29.06781197	3.00000000
29.07188416	2.90196085
29.07593155	3.37254906
29.07593155	2.31372547
29.08001137	2.43137264
29.08416367	3.49019599
29.08824348	3.19607854
29.08824348	2.68627453
29.09260941	2.76470590
29.09669876	2.86274505
29.10080147	1.82352936
29.10080147	2.43137264
29.10485649	3.31372547
29.10918999	2.43137264
29.11331177	2.35294127
29.11753082	1.78431368
29.12168312	1.27450979
29.12168312	2.11764717
29.12581253	2.45098042
29.12962914	1.52941179
29.13338089	1.45098042
29.13338089	1.86274505
29.13740349	0.86274511
29.14145851	1.17647064
29.14558792	2.39215684
29.14558792	2.33333325
29.14971733	2.05882359
29.15377235	2.49019599
29.15816307	2.09803915
29.16224289	2.98039222
29.16615868	4.07843161
29.16615868	3.15686274
29.17041016	3.17647052
29.17453003	3.60784316
29.17933846	3.09803915
29.17933846	2.82352948
29.18261528	3.90196085
29.18658829	4.47058821
29.19160271	3.70588231
29.19160271	3.50980401
29.19519806	3.68627453
29.19892502	2.78431368
29.20298004	3.70588231
29.20701218	3.45098042
29.21116447	2.96078420
29.21116447	3.17647052
29.21522713	3.19607854
29.21931648	2.21568632
29.22371483	2.78431368
29.22371483	3.60784316
29.22778702	2.68627453
29.23158646	2.23529410
29.23596954	2.35294127
29.23596954	1.56862748
29.23987770	1.00000000
29.24453926	1.74509799
29.24840546	1.13725495
29.25280380	1.03921568
29.25698280	1.41176474
29.25698280	0.37254903
29.26111221	0.58823532
29.26456833	1.60784316
29.26854897	1.29411769
29.26854897	0.90196079
29.27260399	0.94117647
29.27663422	1.19607842
29.28077126	0.50980395
29.28077126	1.23529410
29.28486061	2.31372547
29.28896332	1.78431368
29.28896332	1.72549021
29.29333878	2.19607854
29.29742622	1.64705884
29.30153084	1.43137252
29.30153084	2.43137264
29.30555344	2.88235283
29.30965614	2.17647052
29.31485939	2.25490189
29.31485939	2.78431368
29.31847954	1.82352936
29.32260132	2.11764717
29.32676125	3.21568632
29.32676125	2.92156863
29.33001328	2.50980401
29.33408546	2.70588231
29.33408546	2.72549009
29.33814049	1.94117641
29.34224510	2.68627453
29.34631538	3.60784316
29.34631538	2.88235283
29.35041237	2.68627453
29.35478592	3.11764717
29.35888290	2.50980401
29.35888290	2.23529410
29.36296272	3.17647052
29.36677933	3.50980401
29.37090111	2.86274505
29.37090111	2.88235283
29.37496376	3.23529410
29.37905884	2.21568632
29.37905884	2.45098042
29.38320541	3.45098042
29.38733292	3.11764717
29.39137268	2.66666675
29.39137268	2.90196085
29.39543533	2.92156863
29.39953995	2.25490189
29.40362740	3.03921580
29.40362740	3.88235283
29.40802574	3.17647052
29.41213036	2.96078420
29.41607857	3.25490189
29.41607857	2.41176462
29.42003632	2.00000000
29.42412376	2.94117641
29.42412376	3.23529410
29.42821121	2.62745094
29.43235779	2.84313726
29.43641281	3.54901958
29.43641281	2.74509811
29.44050789	3.07843137
29.44458771	4.11764717
29.44890404	3.80392146
29.44890404	3.31372547
29.45321465	3.39215684
29.45732689	3.27450991
29.46142197	2.68627453
29.46522331	3.58823538
29.46925354	2.56862736
29.46925354	2.25490189
29.47327614	2.70588231
29.47736359	2.11764717
29.48151779	1.82352936
29.48151779	2.60784316
29.48559761	2.80392146
29.48997116	2.00000000
29.49406815	1.90196073
29.49406815	2.23529410
29.49808884	1.23529410
29.50224304	1.41176474
29.50629807	1.96078432
29.51076317	1.54901958
29.51499748	1.68627453
29.51499748	1.62745094
29.51888084	0.96078432
29.52321434	1.72549021
29.52743340	2.56862736
29.52743340	1.96078432
29.53083229	1.88235295
29.53479004	2.45098042
29.53889465	1.98039210
29.53889465	1.96078432
29.54292488	3.03921580
29.54701996	3.43137264
29.55116463	3.00000000
29.55518723	3.43137264
29.55960274	2.47058821
29.55960274	2.60784316
29.56368256	3.64705873
29.56762314	3.13725495
29.57178497	2.64705873
29.57178497	2.84313726
29.57567596	2.82352948
29.58061600	2.13725495
29.58416367	2.86274505
29.58416367	3.56862736
29.58815956	2.74509811
29.59210014	2.45098042
29.59613991	1.94117641
29.60024452	1.66666663
29.60438156	2.49019599
29.60438156	2.56862736
29.60845184	1.92156863
29.61254883	1.88235295
29.61667633	2.21568632
29.61667633	1.23529410
29.62071609	1.62745094
29.62485313	2.58823538
29.62890816	2.11764717
29.62890816	1.86274505
29.63303566	2.05882359
29.63710785	1.98039210
29.64118004	2.17647052
29.64529991	3.01960778
29.64949417	2.39215684
29.64949417	2.33333325
29.65352440	2.88235283
29.65761185	2.21568632
29.66175652	2.07843137
29.66175652	2.96078420
29.66583633	3.05882359
29.66988373	2.43137264
29.67402077	2.45098042
29.67402077	2.58823538
29.67811775	1.86274505
29.68227005	2.21568632
29.68633270	2.72549009
29.69040489	2.45098042
29.69454956	2.70588231
29.69454956	1.45098042
29.69860458	1.17647064
29.70265961	1.23529410
29.70682907	1.64705884
29.70682907	1.07843137
29.71087646	1.29411769
29.71504593	0.00000000
29.71915817	0.00000000
29.71915817	0.00000000
29.72318840	0.00000000
29.72731018	0.00000000
29.73137283	0.23529412
29.73550224	0.00000000
29.73954773	0.00000000
29.73954773	0.00000000
29.74365234	0.00000000
29.74775696	0.00000000
29.75186920	0.00000000
29.75186920	1.76470590
29.75593185	0.00000000
29.76004601	1.03921568
29.76414871	0.00000000
29.76414871	0.00000000
29.76823616	0.33333334
29.77234077	2.29411769
29.77643776	2.58823538
29.78057480	3.11764717
29.78463745	2.56862736
29.78463745	2.70588231
29.78894615	3.52941179
29.79279709	4.98039198
29.79690170	0.64705884
29.79690170	4.37254906
29.80103874	3.54901958
29.80516624	3.03921580
29.80921364	3.05882359
29.80921364	4.33333349
29.81330872	4.98039198
29.81743813	1.86274505
29.81743813	4.35294104
29.82149315	2.76470590
29.82560539	2.49019599
29.82969284	2.96078420
29.82969284	4.82352924
29.83376503	3.09803915
29.83786011	4.76470566
29.84198189	4.98039198
29.84198189	4.27450991
29.84607697	4.21568632
29.85018158	4.72549009
29.85426903	4.98039198
29.85426903	2.70588231
29.85834885	4.98039198
29.86248589	4.70588255
29.86248589	4.47058821
29.86654854	4.29411745
29.87066078	4.98039198
29.87479019	4.98039198
29.87479019	3.39215684
29.87883759	4.86274529
29.88304710	3.80392146
29.88703728	3.70588231
29.88703728	3.78431368
29.89116669	4.92156839
29.89521217	1.86274505
29.89944077	4.21568632
29.89944077	4.03921556
29.90341377	3.25490189
29.90751839	3.21568632
29.90751839	3.78431368
29.91163826	4.98039198
29.91572571	0.00000000
29.91982269	3.41176462
29.91982269	1.90196073
29.92389297	1.05882359
29.92798996	1.25490201
29.93219948	2.88235283
29.93219948	4.98039198
29.93619728	0.86274511
29.94030190	3.25490189
29.94439697	1.39215684
29.94439697	1.15686274
29.94850159	1.94117641
29.95260620	4.00000000
29.95260620	0.00000000
29.95666122	2.90196085
29.96076584	2.60784316
29.96487808	0.72549021
29.96487808	0.70588237
29.96897316	2.25490189
29.97309494	4.64705896
29.97717476	0.00000000
29.97717476	3.86274505
29.98123741	2.23529410
29.98534203	1.39215684
29.98944473	3.66666675
29.99355888	4.98039198
29.99765396	1.58823526
29.99765396	3.82352948
30.00173378	1.66666663
30.00582123	1.35294116
30.00994110	2.19607854
30.00994110	4.45098019
30.01402092	0.00000000
30.01818275	3.47058821
30.02224731	3.13725495
30.02224731	1.27450979
30.02631760	1.31372547
30.03041458	2.96078420
30.03450966	0.00000000
30.03858948	4.45098019
30.04271889	2.50980401
30.04271889	1.39215684
30.04678917	1.78431368
30.05089378	3.96078420
30.05499077	4.98039198
30.05499077	1.84313726
30.05908585	4.09803915
30.06315804	1.72549021
30.06729507	1.37254906
30.06729507	2.45098042
30.07138252	4.94117641
30.07546234	0.00000000
30.07953262	3.45098042
30.08370209	1.47058821
30.08775711	1.47058821
30.08775711	3.17647052
30.09182167	4.98039198
30.09595871	0.00000000
30.10018539	4.98039198
30.10018539	3.03921580
30.10414124	2.21568632
30.10822105	2.76470590
30.11232567	4.92156839
30.11232567	4.98039198
30.11654472	2.82352948
30.12055016	4.54901981
30.12464714	1.70588231
30.12870216	2.92156863
30.13292122	4.98039198
30.13292122	0.00000000
30.13685989	4.27450991
30.14090729	3.25490189
30.14507675	1.00000000
30.14507675	1.21568632
30.14927101	3.39215684
30.15327835	4.98039198
30.15740585	0.00000000
30.15740585	4.88235283
30.16146088	2.11764717
30.16563034	0.78431374
30.16969490	4.47058821
30.17376518	4.01960802
30.17786217	2.19607854
30.17786217	4.35294104
30.18195724	1.00000000
30.18605423	0.60784316
30.19012451	2.41176462
30.19012451	4.98039198
30.19418907	0.00000000
30.19827652	4.86274529
30.20242882	3.50980401
30.20242882	0.88235295
30.20647621	1.19607842
30.21059608	3.70588231
30.21467590	0.00000000
30.21879768	4.98039198
30.22292519	2.56862736
30.22292519	1.11764705
30.22699738	2.09803915
30.23112679	4.98039198
30.23521423	4.31372547
30.23521423	3.17647052
30.23926926	4.98039198
30.24335670	1.90196073
30.24753380	1.54901958
30.24753380	3.41176462
30.25163078	4.98039198
30.25569344	0.00000000
30.25973320	4.37254906
30.26380348	1.80392158
30.26800728	2.31372547
30.26800728	4.98039198
30.27211952	4.98039198
30.27616501	0.00000000
30.28026962	4.98039198
30.28026962	1.00000000
30.28437424	0.00000000
30.28842926	0.19607843
30.29256630	4.25490189
30.29256630	0.07843138
30.29661369	0.00000000
30.30077362	1.70588231
30.30077362	0.00000000
30.30480576	0.00000000
30.30886841	0.00000000
30.31302071	2.70588231
30.31302071	0.00000000
30.31713295	4.92156839
30.32118034	3.33333325
30.32530975	0.41176471
30.32530975	1.33333337
30.32940483	4.98039198
30.33349419	5.00000000
30.33762932	2.35294127
30.33762932	4.98039198
30.34169388	4.98039198
30.34582138	4.27450991
30.34582138	4.98039198
30.34989357	4.98039198
30.35398102	4.98039198
30.35811806	4.98039198
30.35811806	4.98039198
30.36214828	4.98039198
30.36639977	4.98039198
30.37035751	4.98039198
30.37035751	4.98039198
30.37442017	1.84313726
30.37852478	4.98039198
30.38277626	4.98039198
30.38277626	4.76470566
30.38672447	4.88235283
30.39082146	4.98039198
30.39082146	5.00000000
30.39492416	3.00000000
30.39903831	4.98039198
30.40314102	4.33333349
30.40314102	3.29411769
30.40724564	3.82352948
30.41134262	4.98039198
30.41547012	4.00000000
30.41547012	4.41176462
30.41952515	4.98039198
30.42362213	2.54901958
30.42770195	2.23529410
30.42770195	3.25490189
30.43178177	4.98039198
30.43595123	0.00000000
30.43595123	3.64705873
30.43996429	2.00000000
30.44413376	0.00000000
30.44823074	0.03921569
30.44823074	2.00000000
30.45238304	4.64705896
30.45641327	0.00000000
30.46052742	3.03921580
30.46052742	0.47058824
30.46459770	0.00000000
30.46869469	0.35294119
30.47282219	2.78431368
30.47282219	1.03921568
30.47684479	1.49019611
30.48096657	2.56862736
30.48096657	0.09803922
30.48507881	0.00000000
30.48914146	1.37254906
30.49325371	3.98039222
30.49325371	0.00000000
30.49731636	3.47058821
30.50148582	2.13725495
30.50552559	0.66666669
30.50552559	0.90196079
30.50964546	2.80392146
30.51379013	4.98039198
30.51791191	4.54901981
30.52195930	3.03921580
30.52605438	2.62745094
30.52605438	2.90196085
30.53014946	4.47058821
30.53425407	4.29411745
30.53831863	4.41176462
30.53831863	4.84313726
30.54241371	4.05882359
30.54650116	3.92156863
30.55066299	4.17647076
30.55066299	4.98039198
30.55469322	1.31372547
30.55877304	4.01960802
30.56288528	2.56862736
30.56702232	2.27450991
30.57110214	3.03921580
30.57110214	4.33333349
30.57519913	1.37254906
30.57930183	3.21568632
30.58340645	2.29411769
30.58340645	2.23529410
30.58753586	2.23529410
30.59159088	3.23529410
30.59567833	1.03921568
30.59567833	1.49019611
30.59978294	1.68627453
30.60389519	0.19607843
30.60796547	1.07843137
30.61207771	2.96078420
30.61623192	0.00000000
30.61623192	2.37254906
30.62026215	1.35294116
30.62436676	0.52941179
30.62849617	0.64705884
30.62849617	1.96078432
30.63257408	3.78431368
30.63664627	0.00000000
30.64078331	1.54901958
30.64078331	0.00000000
30.64483833	0.00000000
30.64891815	0.00000000
30.65301323	0.00000000
30.65712547	0.41176471
30.66123009	0.78431374
30.66123009	0.00000000
30.66530991	0.00000000
30.66940689	0.13725491
30.67348671	2.70588231
30.67348671	0.00000000
30.67761421	2.33333325
30.68165398	0.68627453
30.68582344	0.00000000
30.68582344	0.03921569
30.68985367	2.03921580
30.69400597	4.41176462
30.69815254	3.43137264
30.70219803	1.49019611
30.70633507	1.25490201
30.70633507	2.07843137
30.71032524	4.03921556
30.71446991	0.72549021
30.71863937	3.33333325
30.71863937	3.56862736
30.72264671	1.68627453
30.72672653	1.86274505
30.73085403	3.25490189
30.73085403	4.98039198
30.73497581	0.00000000
30.73902130	4.52941179
30.74314308	1.00000000
30.74720573	1.54901958
30.75132561	3.52941179
30.75132561	4.98039198
30.75539017	0.66666669
30.75946045	3.56862736
30.76360512	0.50980395
30.76360512	0.00000000
30.76766968	0.98039216
30.77181435	3.27450991
30.77595139	0.00000000
30.77595139	2.31372547
30.78000641	2.13725495
30.78410149	0.00000000
30.78823090	1.37254906
30.79231834	3.84313726
30.79643059	4.98039198
30.79643059	4.98039198
30.80051994	4.98039198
30.80460739	4.98039198
30.80869484	4.98039198
30.80869484	4.98039198
30.81278992	4.98039198
30.81691933	4.98039198
30.82094193	4.98039198
30.82094193	4.98039198
30.82514381	4.98039198
30.82916641	4.98039198
30.82916641	4.98039198
30.83327866	4.98039198
30.83739090	4.50980377
30.84144592	4.13725471
30.84144592	4.66666651
30.84560776	4.35294104
30.84969521	3.56862736
30.85379982	3.41176462
30.85379982	3.41176462
30.85783768	2.31372547
30.86190987	2.52941179
30.86607933	3.21568632
30.86607933	2.47058821
30.87010193	2.11764717
30.87419891	2.37254906
30.87419891	2.01960778
30.87831879	1.56862748
30.88238907	2.39215684
30.88651085	2.92156863
30.88651085	2.19607854
30.89057350	2.19607854
30.89466095	2.68627453
30.89877319	1.84313726
30.89877319	1.92156863
30.90288734	2.88235283
30.90696526	2.68627453
30.91109467	2.15686274
30.91109467	2.35294127
30.91515732	0.00000000
30.91926956	0.00000000
30.91926956	0.00000000
30.92333412	0.00000000
30.92743874	0.00000000
30.93153381	0.00000000
30.93153381	0.00000000
30.93569565	0.00000000
30.93978310	0.00000000
30.94392776	0.00000000
30.94392776	0.00000000
30.94798279	0.00000000
30.95210457	0.00000000
30.95620728	0.00000000
30.95620728	0.00000000
30.96028709	0.00000000
30.96436691	0.00000000
30.96436691	0.00000000
30.96844673	0.00000000
30.97254372	2.27450991
30.97664642	4.27450991
30.97664642	4.58823538
30.98073578	4.98039198
30.98484802	4.98039198
30.98893547	4.98039198
30.98893547	4.98039198
30.99299812	4.98039198
30.99712753	4.98039198
31.00131416	4.84313726
31.00131416	4.98039198
31.00534439	4.98039198
31.00944710	4.82352924
31.00944710	4.52941179
31.01354408	4.78431368
31.01763153	3.74509811
31.02176094	3.72549009
31.02176094	4.49019623
31.02589798	4.23529434
31.02991104	3.68627453
31.03402328	3.70588231
31.03402328	3.70588231
31.03820229	2.76470590
31.04221535	3.15686274
31.04632759	3.07843137
31.05038261	2.72549009
31.05451965	2.86274505
31.05451965	2.35294127
31.05857468	1.86274505
31.06267929	2.58823538
31.06689072	3.00000000
31.06689072	2.29411769
31.07090378	2.19607854
31.07495880	2.72549009
31.07911301	1.86274505
31.07911301	1.92156863
31.08314323	2.88235283
31.08728027	2.84313726
31.09136772	2.94117641
31.09556198	3.17647052
31.09970665	2.45098042
31.09970665	3.03921580
31.10363960	3.68627453
31.10773468	2.76470590
31.11185646	2.15686274
31.11185646	2.21568632
31.11596870	1.70588231
31.12004852	1.37254906
31.12415314	2.31372547
31.12415314	2.90196085
31.12821579	2.41176462
31.13232040	2.62745094
31.13641548	0.00000000
31.14050293	0.00000000
31.14461517	0.00000000
31.14461517	0.00000000
31.14872742	0.00000000
31.15273476	1.21568632
31.15687943	0.00000000
31.15687943	0.07843138
31.16094208	0.00000000
31.16512108	0.00000000
31.16918373	0.00000000
31.16918373	1.43137252
31.17321396	1.19607842
31.17731857	0.05882353
31.18141365	0.00000000
31.18554306	0.00000000
31.18989372	0.96078432
31.18989372	4.27450991
31.19382477	0.00000000
31.19811821	4.49019623
31.20204163	3.60784316
31.20204163	1.90196073
31.20619583	2.03921580
31.21028328	3.90196085
31.21438789	4.98039198
31.21438789	4.98039198
31.21847534	4.98039198
31.22253036	4.98039198
31.22656059	4.98039198
31.23065567	4.98039198
31.23472023	4.98039198
31.23472023	4.68627453
31.23882484	4.74509811
31.24289513	3.25490189
31.24700737	2.86274505
31.24700737	3.05882359
31.25148964	4.35294104
31.25548553	0.00000000
31.25958252	2.50980401
31.25958252	1.15686274
31.26368713	0.00000000
31.26750374	0.00000000
31.27268982	3.74509811
31.27626991	0.00000000
31.28007126	1.86274505
31.28007126	0.00000000
31.28388786	0.00000000
31.28803253	0.00000000
31.29206467	1.94117641
31.29206467	1.45098042
31.29617691	1.50980389
31.30033684	2.94117641
31.30436897	0.98039216
31.30436897	1.03921568
31.30843163	2.41176462
31.31286240	4.94117641
31.31669617	4.09803915
31.32100677	3.01960778
31.32510185	1.29411769
31.32510185	1.49019611
31.32977104	3.41176462
31.33311462	4.98039198
31.33781624	2.49019599
31.33781624	4.98039198
31.34130669	4.98039198
31.34538460	4.90196085
31.34941673	4.98039198
31.34941673	4.98039198
31.35348701	4.98039198
31.35761642	4.98039198
31.35761642	4.98039198
31.36170387	4.98039198
31.36599731	4.98039198
31.37021637	4.98039198
31.37021637	4.98039198
31.37428665	4.98039198
31.37832642	4.98039198
31.38218307	4.98039198
31.38218307	4.98039198
31.38785362	4.86274529
31.39163780	4.84313726
31.39452171	4.98039198
31.39452171	3.56862736
31.39860916	3.76470590
31.40267181	3.39215684
31.40267181	3.45098042
31.40677643	2.90196085
31.41084862	3.27450991
31.41496086	4.25490189
31.41496086	4.15686274
31.41936684	4.19607830
31.42337418	4.98039198
31.42752647	4.98039198
31.42752647	4.68627453
31.43163872	4.52941179
31.43572617	4.68627453
31.44065857	3.54901958
31.44065857	3.70588231
31.44501686	4.50980377
31.44857979	3.98039222
31.44857979	3.58823538
31.45299530	3.70588231
31.45713997	3.56862736
31.46121979	2.80392146
31.46121979	3.41176462
31.46420288	4.01960802
31.46822357	3.09803915
31.47231293	2.78431368
31.47231293	3.09803915
31.47640800	2.23529410
31.48050499	1.94117641
31.48464203	2.76470590
31.48464203	2.76470590
31.48887634	1.98039210
31.49307060	1.86274505
31.49307060	2.01960778
31.49712563	0.88235295
31.50106621	1.07843137
31.50538254	1.84313726
31.50538254	1.09803927
31.51039696	0.56862748
31.51406670	0.56862748
31.51773643	0.11764706
31.51773643	0.00000000
31.52249718	0.00000000
31.52578926	0.37254903
31.52986908	0.00000000
31.52986908	0.00000000
31.53394127	0.00000000
31.53803635	0.00000000
31.53803635	0.00000000
31.54206657	0.00000000
31.54613876	0.00000000
31.55023384	0.00000000
31.55023384	0.00000000
31.55421638	0.00000000
31.55831146	0.00000000
31.56244850	0.00000000
31.56244850	0.66666669
31.56654549	0.15686275
31.57091904	0.00000000
31.57501602	0.19607843
31.57908630	0.00000000
31.58293724	0.62745100
31.58293724	1.43137252
31.58727837	0.68627453
31.59221077	0.58823532
31.59524918	1.07843137
31.59524918	0.29411766
31.59934616	0.29411766
31.60337639	1.35294116
31.60748863	1.52941179
31.60748863	1.01960790
31.61156082	1.25490201
31.61566353	1.68627453
31.62007904	1.39215684
31.62388039	2.50980401
31.62827110	1.90196073
31.62827110	1.62745094
31.63221169	1.94117641
31.63627434	1.70588231
31.64151001	1.13725495
31.64151001	1.98039210
31.64500809	2.66666675
31.64850616	1.84313726
31.65255356	1.72549021
31.65255356	2.25490189
31.65663147	1.35294116
31.66077805	1.47058821
31.66486549	2.52941179
31.66893578	1.96078432
31.67303276	2.19607854
31.67303276	2.47058821
31.67716217	1.43137252
31.68120003	2.05882359
31.68533707	3.11764717
31.68533707	2.35294127
31.68936729	2.07843137
31.69345474	2.43137264
31.69757652	2.11764717
31.69757652	1.56862748
31.70170403	2.58823538
31.70575142	3.25490189
31.70990562	2.31372547
31.71400070	2.98039222
31.71816254	1.92156863
31.71816254	2.15686274
31.72217560	3.41176462
31.72626495	3.25490189
31.73040962	2.68627453
31.73040962	2.96078420
31.73443985	3.17647052
31.73853683	2.11764717
31.74268913	2.88235283
31.74268913	4.00000000
31.74671173	3.13725495
31.75091362	2.88235283
31.75490379	2.76470590
31.75900841	2.25490189
31.76310349	3.37254906
31.76310349	3.90196085
31.76724052	2.94117641
31.77132034	2.96078420
31.77545738	3.54901958
31.77545738	2.43137264
31.77952957	2.70588231
31.78363228	3.92156863
31.78775406	3.62745094
31.78775406	3.01960778
31.79182434	3.21568632
31.79593658	3.33333325
31.80002594	3.03921580
31.80415344	4.05882359
31.80821800	3.09803915
31.80821800	2.80392146
31.81228828	3.13725495
31.81641769	2.52941179
31.82050514	1.96078432
31.82050514	3.03921580
31.82456779	3.50980401
31.82885361	2.52941179
31.83275223	2.47058821
31.83275223	3.01960778
31.83705330	1.86274505
31.84117317	2.11764717
31.84511375	3.01960778
31.84921074	2.47058821
31.85399437	2.74509811
31.85399437	2.88235283
31.85782814	1.84313726
31.86211967	2.72549009
31.86560249	3.82352948
31.86560249	2.94117641
31.86969757	2.68627453
31.87370300	3.09803915
31.87784004	2.35294127
31.87784004	1.88235295
31.88195419	3.00000000
31.88608170	3.37254906
31.88608170	2.47058821
31.89014435	2.56862736
31.89451981	3.17647052
31.89833641	1.96078432
31.89833641	2.35294127
31.90271950	3.60784316
31.90676689	3.13725495
31.91073990	2.60784316
31.91073990	2.92156863
31.91563797	2.98039222
31.91890717	1.98039210
31.92327309	2.88235283
31.92327309	3.94117641
31.92704201	2.96078420
31.93117905	2.74509811
31.93117905	3.27450991
31.93519402	2.52941179
31.93926430	2.21568632
31.94339371	3.37254906
31.94339371	3.70588231
31.94746399	2.70588231
31.95188904	2.68627453
31.95599174	3.23529410
31.95599174	1.90196073
31.95988464	2.35294127
31.96385765	3.64705873
31.96805191	3.15686274
31.96805191	2.72549009
31.97212219	3.11764717
31.97670937	3.11764717
31.97670937	2.15686274
31.98084641	3.17647052
31.98478699	4.17647076
31.98851395	3.09803915
31.98851395	2.84313726
31.99258614	3.37254906
31.99661636	2.27450991
32.00075531	2.09803915
32.00075531	3.33333325
32.00481796	3.43137264
32.00891113	2.50980401
32.01303482	2.64705873
32.01303482	3.19607854
32.01733398	1.84313726
32.02148056	2.31372547
32.02148056	3.60784316
32.02561569	2.90196085
32.02969742	2.39215684
32.03384018	2.78431368
32.03384018	2.62745094
32.03770065	1.54901958
32.04172134	2.49019599
32.04608154	3.35294127
32.04608154	2.13725495
32.05006790	1.80392158
32.05401993	2.27450991
32.05813217	1.31372547
32.05813217	1.03921568
32.06215286	2.33333325
32.06638718	2.50980401
32.06638718	1.60784316
32.07038498	1.76470590
32.07477570	2.27450991
32.07887268	0.94117647
32.07887268	1.58823526
32.08268356	2.94117641
32.08704758	2.31372547
32.09115982	1.94117641
32.09115982	2.33333325
32.09523010	2.54901958
32.09949112	1.43137252
32.10396576	3.64705873
32.10755920	2.60784316
32.11142731	2.47058821
32.11142731	1.13725495
32.11544800	0.00000000
32.11952972	0.00000000
32.12360764	0.00000000
32.12360764	0.00000000
32.12773132	0.00000000
32.13183212	0.00000000
32.13598633	0.00000000
32.13598633	0.00000000
32.14001083	0.00000000
32.14430237	0.00000000
32.14852142	1.25490201
32.15259171	4.62745094
32.15663910	0.00000000
32.15663910	2.33333325
32.16119385	0.00000000
32.16537094	0.00000000
32.16929626	0.00000000
32.16929626	1.92156863
32.17300797	0.96078432
32.17707825	0.00000000
32.18121338	1.94117641
32.18121338	0.00000000
32.18517303	0.00000000
32.18917084	0.00000000
32.19334793	0.00000000
32.19735336	2.70588231
32.20149231	1.23529410
