1.41792870	2.52941179
1.42202473	2.58823538
1.42202473	2.90196085
1.42617810	2.37254906
1.43021667	2.35294127
1.43426359	3.05882359
1.43835950	2.45098042
1.44248009	2.54901958
1.44248009	2.90196085
1.44674814	2.05882359
1.45063114	2.54901958
1.45494831	3.21568632
1.45494831	2.60784316
1.45884776	2.37254906
1.46296835	2.56862736
1.46729374	2.33333325
1.46729374	1.72549021
1.47121763	2.29411769
1.47537923	2.58823538
1.47977006	1.49019611
1.48352206	1.70588231
1.48761809	1.05882359
1.48761809	1.09803927
1.49179602	1.90196073
1.49616230	1.90196073
1.49989784	1.45098042
1.49989784	1.70588231
1.50390375	2.15686274
1.50829470	1.43137252
1.51239061	2.01960778
1.51239061	2.74509811
1.51620817	2.17647052
1.52037787	2.05882359
1.52528489	2.35294127
1.52909410	2.00000000
1.53338671	2.82352948
1.53338671	3.33333325
1.53755653	2.60784316
1.54223406	2.68627453
1.54534709	3.03921580
1.54534709	2.41176462
1.54916453	2.47058821
1.55358827	3.13725495
1.55765140	2.92156863
1.55765140	2.29411769
1.56128871	2.31372547
1.56537652	2.49019599
1.56537652	1.64705884
1.56947255	2.15686274
1.57378972	2.74509811
1.57792664	2.35294127
1.57792664	2.33333325
1.58176053	2.52941179
1.58606136	2.43137264
1.59059966	2.27450991
1.59059966	2.86274505
1.59419596	3.17647052
1.59961092	2.66666675
1.60231423	2.80392146
1.60231423	3.01960778
1.60766363	2.52941179
1.61050630	2.70588231
1.61050630	3.21568632
1.61452854	3.03921580
1.61859179	2.70588231
1.62273693	2.88235283
1.62273693	3.05882359
1.62680829	2.54901958
1.63084698	3.00000000
1.63494301	3.41176462
1.63494301	2.90196085
1.63907993	2.84313726
1.64326608	3.00000000
1.64728832	2.76470590
1.64728832	2.49019599
1.65137613	2.96078420
1.65616846	3.07843137
1.65616846	2.47058821
1.65988767	2.52941179
1.66414750	2.84313726
1.66829264	2.49019599
1.66829264	2.90196085
1.67243779	3.62745094
1.67617333	3.64705873
1.68058062	3.54901958
1.68058062	3.78431368
1.68425059	3.94117641
1.68823195	3.37254906
1.69238532	3.72549009
1.69238532	3.96078420
1.69648945	3.27450991
1.70055270	3.07843137
1.70055270	3.07843137
1.70462418	2.70588231
1.70878565	2.33333325
1.71290624	2.74509811
1.71290624	2.80392146
1.71693671	2.21568632
1.72106552	2.19607854
1.72518599	2.45098042
1.72518599	1.92156863
1.72923291	2.11764717
1.73331249	2.58823538
1.73744953	2.35294127
1.73744953	2.03921580
1.74150455	2.17647052
1.74568248	2.29411769
1.74568248	1.76470590
1.74971294	2.25490189
1.75375152	2.62745094
1.75792134	2.07843137
1.75792134	2.03921580
1.76202548	2.25490189
1.76608050	2.01960778
1.77018476	1.94117641
1.77018476	2.56862736
1.77425611	2.86274505
1.77842581	2.50980401
1.78247273	3.27450991
1.78652775	2.92156863
1.79067290	3.29411769
1.79067290	3.86274505
1.79528499	3.54901958
1.79922533	3.17647052
1.80337870	3.15686274
1.80337870	3.01960778
1.80747473	2.25490189
1.81121027	2.45098042
1.81524074	2.60784316
1.81524074	1.82352936
1.81959069	1.66666663
1.82368660	1.72549021
1.82779086	1.27450979
1.83185410	1.78431368
1.83582723	1.90196073
1.83582723	1.43137252
1.84036553	1.52941179
1.84419942	1.86274505
1.84863949	1.39215684
1.84863949	1.72549021
1.85282564	2.27450991
1.85678232	2.01960778
1.86039495	1.84313726
1.86039495	2.01960778
1.86488426	2.13725495
1.86893928	1.72549021
1.87273216	2.86274505
1.87669706	2.49019599
1.88078487	2.74509811
1.88078487	3.11764717
1.88494647	2.96078420
1.88895237	2.86274505
1.89329410	3.29411769
1.89329410	3.21568632
1.89738190	2.49019599
1.90246916	2.31372547
1.90544283	2.37254906
1.90544283	1.62745094
1.90952241	1.76470590
1.91398704	2.19607854
1.91858280	1.64705884
1.92299008	1.86274505
1.92596376	1.94117641
1.92596376	1.54901958
1.93042028	2.09803915
1.93445075	2.50980401
1.93816984	1.98039210
1.93816984	2.09803915
1.94227409	2.35294127
1.94628811	2.07843137
1.95040047	2.15686274
1.95040047	2.72549009
1.95448828	2.80392146
1.95860887	2.31372547
1.96272123	2.58823538
1.96738255	1.98039210
1.97153592	2.27450991
1.97153592	2.80392146
1.97521412	2.52941179
1.97977698	2.49019599
1.98374200	2.80392146
1.98374200	2.98039222
1.98781335	2.66666675
1.99190938	3.19607854
1.99590707	3.49019599
1.99590707	2.82352948
1.99966717	2.72549009
2.00366497	2.76470590
2.00800657	2.19607854
2.01211905	2.66666675
2.01622319	2.64705873
2.01622319	2.15686274
2.02004886	2.21568632
2.02465272	2.50980401
2.02969098	1.96078432
2.02969098	2.35294127
2.03374600	2.90196085
2.03650665	2.56862736
2.04084015	2.47058821
2.04084015	2.70588231
2.04509997	2.70588231
2.04885197	2.31372547
2.05284977	3.13725495
2.05694556	2.54901958
2.06108260	2.56862736
2.06108260	2.76470590
2.06509662	2.43137264
2.06918454	2.49019599
2.07332969	3.11764717
2.07332969	3.23529410
2.07743382	2.88235283
2.08148074	3.05882359
2.08583879	3.37254906
2.08583879	2.80392146
2.08991838	3.09803915
2.09412098	3.45098042
2.09412098	2.90196085
2.09814334	2.54901958
2.10261607	2.52941179
2.10638428	2.27450991
2.10638428	1.64705884
2.11039853	1.98039210
2.11455989	2.15686274
2.11891818	1.47058821
2.11891818	1.49019611
2.12271929	1.68627453
2.12677431	1.35294116
2.13090301	1.47058821
2.13090301	2.03921580
2.13493347	2.11764717
2.13900495	1.74509799
2.13900495	1.94117641
2.14307642	2.29411769
2.14702487	1.80392158
2.15117002	2.29411769
2.15117002	2.88235283
2.15523338	2.54901958
2.15935397	2.56862736
2.16349077	2.92156863
2.16349077	2.96078420
2.16755414	2.72549009
2.17165828	3.35294127
2.17581987	3.76470590
2.17581987	3.19607854
2.18121004	3.21568632
2.18402004	3.37254906
2.18402004	2.90196085
2.18799305	2.82352948
2.19211364	3.19607854
2.19633245	2.94117641
2.19633245	2.33333325
2.20037127	2.25490189
2.20448351	2.31372547
2.20872712	1.60784316
2.20872712	1.92156863
2.21405172	2.31372547
2.21727943	1.86274505
2.22136736	1.78431368
2.22136736	1.94117641
2.22534037	1.86274505
2.22944450	1.54901958
2.22944450	2.09803915
2.23315549	2.39215684
2.23759556	1.82352936
2.24166703	1.90196073
2.24166703	2.17647052
2.24547625	1.80392158
2.24953151	1.92156863
2.25355363	2.50980401
2.25355363	2.47058821
2.25792003	2.15686274
2.26204872	2.37254906
2.26609564	2.70588231
2.26609564	2.25490189
2.26998687	2.82352948
2.27428770	3.41176462
2.27428770	3.13725495
2.27822804	3.15686274
2.28253698	3.47058821
2.28646088	3.39215684
2.28646088	3.07843137
2.29124498	3.52941179
2.29461193	3.60784316
2.29897833	2.78431368
2.29897833	2.56862736
2.30290222	2.52941179
2.30729318	1.78431368
2.31097960	2.01960778
2.31499362	1.76470590
2.31936002	1.35294116
2.31936002	1.39215684
2.32341504	1.62745094
2.32744551	1.07843137
2.33150864	1.56862748
2.33150864	2.15686274
2.33571124	1.78431368
2.34042978	1.84313726
2.34384584	2.17647052
2.34384584	2.15686274
2.34852362	2.01960778
2.35198045	2.64705873
2.35732985	2.60784316
2.36042643	2.80392146
2.36453080	3.19607854
2.36453080	2.92156863
2.36843824	3.19607854
2.37244415	3.80392146
2.37647462	3.68627453
2.37647462	3.33333325
2.38052964	3.43137264
2.38486314	3.54901958
2.38901663	2.90196085
2.38901663	3.21568632
2.39294052	3.56862736
2.39719224	2.96078420
2.40138650	2.94117641
2.40522027	2.70588231
2.40933275	2.39215684
2.40933275	2.82352948
2.41337967	2.94117641
2.41745090	2.29411769
2.42153072	2.27450991
2.42153072	2.47058821
2.42561841	1.96078432
2.42981267	2.09803915
2.43435931	2.62745094
2.43435931	2.50980401
2.43789816	2.25490189
2.44198608	2.45098042
2.44615579	2.23529410
2.45030904	2.72549009
2.45441341	3.21568632
2.45441341	2.72549009
2.45849299	2.76470590
2.46258903	3.01960778
2.46681595	2.90196085
2.46681595	2.76470590
2.47133803	3.33333325
2.47531104	3.58823538
2.47909570	3.01960778
2.47909570	3.07843137
2.48370790	3.35294127
2.48738623	2.84313726
2.49171138	3.56862736
2.49544716	3.35294127
2.49955940	3.05882359
2.49955940	3.15686274
2.50360632	3.21568632
2.50773501	2.54901958
2.51179004	2.86274505
2.51179004	3.09803915
2.51597619	2.35294127
2.51979375	2.13725495
2.52411914	2.11764717
2.52411914	1.74509799
2.52828884	1.45098042
2.53209805	1.84313726
2.53643990	1.33333337
2.54059315	1.35294116
2.54449248	1.60784316
2.54449248	1.09803927
2.54893255	1.35294116
2.55300403	1.92156863
2.55679703	1.74509799
2.55679703	1.56862748
2.56084371	1.80392158
2.56484151	2.03921580
2.56919146	1.68627453
2.56919146	2.29411769
2.57328749	2.82352948
2.57744074	2.41176462
2.58146310	2.72549009
2.58555913	2.50980401
2.59007287	2.37254906
2.59007287	2.86274505
2.59393954	2.96078420
2.59798622	2.37254906
2.60195112	2.39215684
2.60195112	2.58823538
2.60619473	1.98039210
2.60997128	2.17647052
2.61409998	2.62745094
2.61409998	2.31372547
2.61813855	2.00000000
2.62223458	2.15686274
2.62223458	2.21568632
2.62634706	1.68627453
2.63038564	2.15686274
2.63448977	2.49019599
2.63448977	1.90196073
2.63884807	1.86274505
2.64269829	2.01960778
2.64707279	1.72549021
2.64707279	1.58823526
2.65112782	2.09803915
2.65544510	2.23529410
2.65929532	1.72549021
2.65929532	1.78431368
2.66371894	2.07843137
2.66786408	1.54901958
2.66786408	1.86274505
2.67179632	2.37254906
2.67560554	2.11764717
2.67964411	1.92156863
2.67964411	2.15686274
2.68366647	2.33333325
2.68778706	1.98039210
2.69186664	2.58823538
2.69186664	3.11764717
2.69596267	2.70588231
2.70030427	2.86274505
2.70428562	3.17647052
2.70428562	3.03921580
2.70820141	3.03921580
2.71263337	3.66666675
2.71263337	3.80392146
2.71699977	3.31372547
2.72103024	3.31372547
2.72533917	3.43137264
2.72533917	2.70588231
2.72932863	2.78431368
2.73347378	3.03921580
2.73720932	2.47058821
2.73720932	2.03921580
2.74139547	2.05882359
2.74561429	1.98039210
2.74934983	1.45098042
2.74934983	1.94117641
2.75331473	2.33333325
2.75738621	1.84313726
2.75738621	2.00000000
2.76176906	2.33333325
2.76580763	2.13725495
2.76969051	2.17647052
2.76969051	2.86274505
2.77402425	2.98039222
2.77793169	2.54901958
2.78206873	2.70588231
2.78206873	3.03921580
2.78612375	2.50980401
2.79075217	2.84313726
2.79479909	2.98039222
2.79884601	2.76470590
2.80291748	2.88235283
2.80291748	2.84313726
2.80704618	2.37254906
2.81070805	2.80392146
2.81480408	3.11764717
2.81480408	2.49019599
2.81881809	2.45098042
2.82302046	2.62745094
2.82723951	2.21568632
2.82723951	2.13725495
2.83134365	2.56862736
2.83546424	2.52941179
2.84046125	1.98039210
2.84370542	2.19607854
2.84799790	1.60784316
2.84799790	1.94117641
2.85171723	2.39215684
2.85609984	2.01960778
2.85995007	1.92156863
2.85995007	2.15686274
2.86439013	2.21568632
2.86853528	1.94117641
2.87245917	2.54901958
2.87245917	3.00000000
2.87626863	2.52941179
2.88024974	2.66666675
2.88441133	2.70588231
2.88857293	2.80392146
2.89259529	3.41176462
2.89259529	3.49019599
2.89692068	3.11764717
2.90100026	3.27450991
2.90492415	3.54901958
2.90492415	3.00000000
2.90897107	3.35294127
2.91311622	3.84313726
2.91723680	3.43137264
2.91723680	3.23529410
2.92122626	3.37254906
2.92555165	3.25490189
2.92964768	3.13725495
2.93402219	3.29411769
2.93767571	2.52941179
2.93767571	2.41176462
2.94177175	2.45098042
2.94585967	1.96078432
2.95025039	1.92156863
2.95025039	2.35294127
2.95428920	2.31372547
2.95831132	1.88235295
2.96224356	2.01960778
2.96224356	2.29411769
2.96636415	1.76470590
2.97061586	2.19607854
2.97598982	2.31372547
2.97985649	2.25490189
2.98350191	2.47058821
2.98350191	2.45098042
2.98687696	2.09803915
2.99139881	2.64705873
2.99541306	2.98039222
2.99541306	2.37254906
2.99915671	2.41176462
3.00317907	2.66666675
3.00751257	2.29411769
3.00751257	2.37254906
3.01164961	2.92156863
3.01571274	2.86274505
3.01979232	2.64705873
3.02528095	2.88235283
3.02877903	2.37254906
3.02877903	2.76470590
3.03231788	3.23529410
3.03730679	2.82352948
3.04018235	2.74509811
3.04018235	2.88235283
3.04416347	2.76470590
3.04843974	2.39215684
3.05234742	2.80392146
3.05234742	3.01960778
3.05641055	2.39215684
3.06058860	2.37254906
3.06464362	2.21568632
3.06877232	2.37254906
3.07278633	2.94117641
3.07278633	2.88235283
3.07705450	2.54901958
3.08124065	2.66666675
3.08533669	2.86274505
3.08533669	2.27450991
3.08978486	2.60784316
3.09362698	3.01960778
3.09799314	2.49019599
3.09799314	2.33333325
3.10194993	2.45098042
3.10574293	2.29411769
3.10574293	1.92156863
3.10998631	2.39215684
3.11433625	2.58823538
3.11816192	1.92156863
3.11816192	1.96078432
3.12206125	2.17647052
3.12614918	1.70588231
3.13018775	1.88235295
3.13018775	2.43137264
3.13421822	2.33333325
3.13858461	2.01960778
3.14242673	2.15686274
3.14242673	2.41176462
3.14664555	1.84313726
3.15065956	2.25490189
3.15065956	2.70588231
3.15486217	2.13725495
3.15896630	2.03921580
3.16334891	2.17647052
3.16334891	2.00000000
3.16736317	1.74509799
3.17128706	2.29411769
3.17575979	2.60784316
3.17575979	2.11764717
3.17973304	2.25490189
3.18380451	2.60784316
3.18765473	2.29411769
3.18765473	2.54901958
3.19163609	3.15686274
3.19578934	3.09803915
3.19578934	2.82352948
3.19990158	3.01960778
3.20410419	3.21568632
3.20813465	2.62745094
3.20813465	3.01960778
3.21235347	3.41176462
3.21626925	2.82352948
3.22091413	2.68627453
3.22091413	2.78431368
3.22499371	2.54901958
3.22891784	2.21568632
3.23320222	2.62745094
3.23320222	2.72549009
3.23709345	2.05882359
3.24090266	1.98039210
3.24090266	2.13725495
3.24499035	1.58823526
3.24903727	1.72549021
3.25312519	2.21568632
3.25312519	2.07843137
3.25717187	1.80392158
3.26130080	2.01960778
3.26538038	2.25490189
3.26538038	1.80392158
3.26942730	2.35294127
3.27353144	2.84313726
3.27779126	2.41176462
3.27779126	2.41176462
3.28180528	2.68627453
3.28586864	2.50980401
3.28586864	2.35294127
3.28993988	2.90196085
3.29414248	3.11764717
3.29814839	2.54901958
3.29814839	2.60784316
3.30221987	2.86274505
3.30633211	2.35294127
3.31043625	2.49019599
3.31043625	2.98039222
3.31455684	2.70588231
3.31863666	2.35294127
3.32271624	2.58823538
3.32713985	2.03921580
3.33121133	2.49019599
3.33121133	2.90196085
3.33525801	2.35294127
3.34023881	2.37254906
3.34337640	2.54901958
3.34337640	2.33333325
3.34836531	2.15686274
3.35195351	2.60784316
3.35658193	2.70588231
3.35658193	2.05882359
3.35970306	1.98039210
3.36397099	2.17647052
3.36806703	1.80392158
3.37219596	2.33333325
3.37605429	2.13725495
3.37605429	2.00000000
3.38015032	2.25490189
3.38414788	2.52941179
3.38849783	2.15686274
3.38849783	2.74509811
3.39229083	3.27450991
3.39669800	2.82352948
3.40076137	2.88235283
3.40076137	3.11764717
3.40467715	2.92156863
3.40905976	2.78431368
3.41291833	3.45098042
3.41721082	2.88235283
3.42146254	2.94117641
3.42146254	3.15686274
3.42604995	2.56862736
3.42936778	2.78431368
3.43384886	3.21568632
3.43384886	2.86274505
3.43746161	2.56862736
3.44147563	2.60784316
3.44573545	2.58823538
3.44573545	1.98039210
3.44970036	2.33333325
3.45387006	2.62745094
3.45812988	1.92156863
3.46211934	2.09803915
3.46651030	1.80392158
3.46651030	1.76470590
3.47104859	2.35294127
3.47580814	2.49019599
3.47888851	2.05882359
3.47888851	2.19607854
3.48308277	2.54901958
3.48753929	2.05882359
3.49084878	2.41176462
3.49084878	2.98039222
3.49510860	2.72549009
3.49894238	2.52941179
3.50291562	2.76470590
3.50702786	2.23529410
3.51132059	2.68627453
3.51132059	2.98039222
3.51540828	2.29411769
3.51949620	2.25490189
3.52369881	2.37254906
3.52369881	2.01960778
3.52762270	1.94117641
3.53319311	2.50980401
3.53660107	2.62745094
3.53660107	2.21568632
3.54097557	2.39215684
3.54439998	2.74509811
3.54853678	2.64705873
3.55264091	3.19607854
3.55644202	2.90196085
3.55644202	2.70588231
3.56035781	2.92156863
3.56437206	3.00000000
3.56847620	2.56862736
3.56847620	3.11764717
3.57269502	3.50980401
3.57663536	2.98039222
3.58102632	3.00000000
3.58102632	3.17647052
3.58507323	2.78431368
3.58949685	2.68627453
3.59312582	2.98039222
3.59771347	2.33333325
3.60168648	2.25490189
3.60168648	2.35294127
3.60565972	1.64705884
3.60952616	1.80392158
3.61370420	2.17647052
3.61370420	1.72549021
3.61803770	1.49019611
3.62192082	1.62745094
3.62593484	1.60784316
3.62593484	1.17647064
3.62995720	1.70588231
3.63427424	2.09803915
3.63427424	1.58823526
3.63832927	1.66666663
3.64243364	1.96078432
3.64657044	1.72549021
3.64657044	1.80392158
3.65092874	2.41176462
3.65501642	2.50980401
3.65909600	2.07843137
3.65909600	2.21568632
3.66295457	2.52941179
3.66743541	1.98039210
3.67141676	2.33333325
3.67141676	2.84313726
3.67590594	2.47058821
3.67955971	2.31372547
3.67955971	2.45098042
3.68340182	2.35294127
3.68735027	1.86274505
3.69136429	2.27450991
3.69136429	2.52941179
3.69550133	1.90196073
3.69979382	1.88235295
3.70366883	2.07843137
3.70366883	1.76470590
3.70801878	1.82352936
3.71201634	2.37254906
3.71667767	2.41176462
3.71667767	2.00000000
3.72046232	2.13725495
3.72536945	2.41176462
3.72536945	1.88235295
3.72898197	2.27450991
3.73333192	2.76470590
3.73746085	2.35294127
3.73746085	2.23529410
3.74107337	2.39215684
3.74506283	2.33333325
3.74888849	1.98039210
3.74888849	2.50980401
3.75278807	2.86274505
3.75690031	2.31372547
3.76108646	2.45098042
3.76108646	2.74509811
3.76507592	2.47058821
3.76918840	2.60784316
3.76918840	3.25490189
3.77329254	3.31372547
3.77751970	2.94117641
3.78213167	3.07843137
3.78213167	3.27450991
3.78588367	2.60784316
3.79009438	2.84313726
3.79426408	3.17647052
3.79426408	2.56862736
3.79840922	2.33333325
3.80210376	2.43137264
3.80662584	2.29411769
3.80662584	1.90196073
3.81023836	2.41176462
3.81425261	2.72549009
3.81425261	2.11764717
3.81834865	2.25490189
3.82243633	2.54901958
3.82657337	2.21568632
3.82657337	2.37254906
3.83066940	2.98039222
3.83478165	2.96078420
3.83885312	2.58823538
3.83885312	2.68627453
3.84294105	2.90196085
3.84750390	2.29411769
3.85174727	3.15686274
3.85573673	2.72549009
3.85978365	2.68627453
3.85978365	2.92156863
3.86398625	2.86274505
3.86813140	2.60784316
3.87170315	3.13725495
3.87170315	3.41176462
3.87574983	2.82352948
3.87975574	2.86274505
3.88399100	3.03921580
3.88399100	2.58823538
3.88820982	2.60784316
3.89230585	3.05882359
3.89645934	2.43137264
3.90089941	2.43137264
3.90469217	2.62745094
3.90469217	1.98039210
3.90853429	2.39215684
3.91263032	2.84313726
3.91671801	2.37254906
3.91671801	2.35294127
3.92082238	2.62745094
3.92493463	2.56862736
3.92899799	2.37254906
3.92899799	2.98039222
3.93313479	3.29411769
3.93725538	2.78431368
3.94124484	3.11764717
3.94534087	2.70588231
3.94942880	2.84313726
3.94942880	3.37254906
3.95376229	3.25490189
3.95787477	2.94117641
3.96182323	3.09803915
3.96182323	3.33333325
3.96596837	2.82352948
3.96994972	3.23529410
3.97406197	3.64705873
3.97406197	3.11764717
3.97856760	3.00000000
3.98282743	3.09803915
3.98676777	2.56862736
3.99050331	3.03921580
3.99501729	3.25490189
3.99501729	2.66666675
3.99865437	2.68627453
4.00266838	2.92156863
4.00704288	2.41176462
4.00704288	2.49019599
4.01092625	2.94117641
4.01498938	2.68627453
4.01931477	2.25490189
4.01931477	2.29411769
4.02341080	2.39215684
4.02741671	1.76470590
4.03282309	2.49019599
4.03602648	1.92156863
4.03999949	1.88235295
4.03999949	2.07843137
4.04375982	1.92156863
4.04828978	1.72549021
4.05230379	2.31372547
4.05230379	2.60784316
4.05630159	2.11764717
4.06010246	2.29411769
4.06419039	2.62745094
4.06419039	2.21568632
4.06821251	2.49019599
4.07252979	3.09803915
4.07660151	2.82352948
4.08079576	3.09803915
4.08484268	3.37254906
4.08484268	2.94117641
4.08893013	3.41176462
4.09300184	3.76470590
4.09839201	3.13725495
4.09839201	2.90196085
4.10117722	2.82352948
4.10535526	2.29411769
4.10932016	1.74509799
4.10932016	1.94117641
4.11359644	1.80392158
4.11769247	1.01960790
4.12151003	1.05882359
4.12554026	0.52941179
4.12973452	0.78431374
4.12973452	1.37254906
4.13378143	1.27450979
4.13786936	1.13725495
4.14197350	1.45098042
4.14197350	1.76470590
4.14631510	1.43137252
4.15121412	2.01960778
4.15494967	2.62745094
4.15494967	2.25490189
4.15844774	2.37254906
4.16351843	2.70588231
4.16351843	2.60784316
4.16693449	2.52941179
4.17157936	3.17647052
4.17536402	3.39215684
4.17536402	2.88235283
4.17896032	2.94117641
4.18302345	3.17647052
4.18708706	2.54901958
4.18708706	2.66666675
4.19111729	3.03921580
4.19547558	2.60784316
4.19933367	2.17647052
4.19933367	2.21568632
4.20355272	2.19607854
4.20764875	1.58823526
4.20764875	1.98039210
4.21188402	2.33333325
4.21651268	1.80392158
4.22126389	1.84313726
4.22126389	2.11764717
4.22538424	1.92156863
4.22830057	1.90196073
4.23294544	2.52941179
4.23294544	2.64705873
4.23655033	2.09803915
4.24066257	2.17647052
4.24472570	2.41176462
4.24472570	1.78431368
4.24878073	2.00000000
4.25281143	2.41176462
4.25281143	2.01960778
4.25684977	1.76470590
4.26098680	1.90196073
4.26508284	2.00000000
4.26508284	1.54901958
4.26912165	2.13725495
4.27305365	2.62745094
4.27721500	2.13725495
4.27721500	2.27450991
4.28145885	2.56862736
4.28556299	2.43137264
4.28942966	2.45098042
4.28942966	3.13725495
4.29361582	3.35294127
4.29905510	3.00000000
4.29905510	3.17647052
4.30257750	3.50980401
4.30620670	3.00000000
4.31001616	3.25490189
4.31001616	3.68627453
4.31400537	3.29411769
4.31810951	2.94117641
4.32243490	3.00000000
4.32243490	2.92156863
4.32630157	2.33333325
4.33045483	2.72549009
4.33452654	3.01960778
4.33452654	2.35294127
4.33859777	2.29411769
4.34270191	2.43137264
4.34270191	2.09803915
4.34692907	1.96078432
4.35247517	2.45098042
4.35553885	2.47058821
4.35553885	1.94117641
4.35960197	1.98039210
4.36325598	2.23529410
4.36772871	1.68627453
4.36772871	2.03921580
4.37143135	2.56862736
4.37546206	2.35294127
4.37954950	2.54901958
4.38389158	2.72549009
4.38794661	2.37254906
4.38794661	2.96078420
4.39206696	3.35294127
4.39621210	2.84313726
4.40161085	2.90196085
4.40161085	3.11764717
4.40460062	2.82352948
4.40831995	2.76470590
4.41280079	3.27450991
4.41280079	3.27450991
4.41716719	2.72549009
4.42056704	2.64705873
4.42494154	2.07843137
4.42916870	2.21568632
4.43321562	2.56862736
4.43321562	2.11764717
4.43699217	1.84313726
4.44103909	1.96078432
4.44509411	1.98039210
4.44509411	1.54901958
4.44924736	2.07843137
4.45326948	2.41176462
4.45764399	1.84313726
4.45764399	1.88235295
4.46153545	2.11764717
4.46581984	1.84313726
4.47025156	2.52941179
4.47531414	2.64705873
4.47814846	2.31372547
4.47814846	2.49019599
4.48333406	2.84313726
4.48679113	2.35294127
4.49023199	2.72549009
4.49023199	3.23529410
4.49435234	2.86274505
4.49844027	2.68627453
4.50244617	2.84313726
4.50244617	2.80392146
4.50648451	2.35294127
4.51067066	2.82352948
4.51471758	2.41176462
4.51876450	2.41176462
4.52286863	2.56862736
4.52286863	2.09803915
4.52705479	2.07843137
4.53166676	2.56862736
4.53582048	2.50980401
4.53582048	2.03921580
4.53986692	2.09803915
4.54353714	2.33333325
4.54769850	1.72549021
4.54769850	2.07843137
4.55219603	2.54901958
4.55625105	2.17647052
4.55987215	2.37254906
4.56387806	2.41176462
4.56798220	2.17647052
4.56798220	2.78431368
4.57230759	3.17647052
4.57625580	2.66666675
4.58054018	2.76470590
4.58054018	3.07843137
4.58461189	2.72549009
4.58897018	2.80392146
4.59264803	3.33333325
4.59264803	3.21568632
4.59712934	2.72549009
4.60112715	2.74509811
4.60505915	2.13725495
4.60946655	2.43137264
4.61339855	2.80392146
4.61339855	2.31372547
4.61746979	2.13725495
4.62134457	2.31372547
4.62541628	2.25490189
4.62541628	1.96078432
4.62943029	2.49019599
4.63354254	2.80392146
4.63787603	2.23529410
4.63787603	2.31372547
4.64191484	2.50980401
4.64598608	2.09803915
4.64998388	2.68627453
4.65448952	2.60784316
4.65948677	2.21568632
4.65948677	2.37254906
4.66270638	2.62745094
4.66762972	2.13725495
4.67075872	2.58823538
4.67075872	3.11764717
4.67483044	2.78431368
4.67895079	2.78431368
4.68316174	3.05882359
4.68316174	3.01960778
4.68687248	2.76470590
4.69087029	3.29411769
4.69087029	3.49019599
4.69499922	2.82352948
4.69929171	2.78431368
4.70341206	2.88235283
4.70341206	2.33333325
4.70749187	2.37254906
4.71159601	2.82352948
4.71567583	2.70588231
4.71567583	2.33333325
4.71977997	2.47058821
4.72375298	2.76470590
4.72802925	2.23529410
4.72802925	2.64705873
4.73270702	3.07843137
4.73608208	2.58823538
4.73608208	2.50980401
4.74089050	2.64705873
4.74423313	2.49019599
4.74830437	2.19607854
4.74830437	2.68627453
4.75231028	2.88235283
4.75638151	2.23529410
4.76055145	2.27450991
4.76055145	2.45098042
4.76477051	1.96078432
4.76893997	2.11764717
4.77293777	2.66666675
4.77293777	2.58823538
4.77701712	2.31372547
4.78176880	2.49019599
4.78176880	2.78431368
4.78627443	2.31372547
4.78961658	2.84313726
4.79339314	3.31372547
4.79339314	2.94117641
4.79757929	2.94117641
4.80184746	3.17647052
4.80602503	3.05882359
4.80602503	2.86274505
4.80973625	3.35294127
4.81376648	3.50980401
4.81783819	2.84313726
4.81783819	2.82352948
4.82203245	2.90196085
4.82628393	2.33333325
4.82628393	2.39215684
4.83042097	2.82352948
4.83448410	2.58823538
4.83971882	2.17647052
4.83971882	2.27450991
4.84304476	2.35294127
4.84711647	1.72549021
4.85099936	2.05882359
4.85099936	2.37254906
4.85514450	1.78431368
4.85934687	1.62745094
4.86341858	1.54901958
4.86716223	1.37254906
4.87151194	1.92156863
4.87151194	2.21568632
4.87534571	1.78431368
4.87936831	2.00000000
4.88342333	2.43137264
4.88342333	2.09803915
4.88771582	2.43137264
4.89184475	3.07843137
4.89597321	3.00000000
4.89597321	2.80392146
4.89997911	2.98039222
4.90383768	3.19607854
4.90799904	3.11764717
4.91232443	3.45098042
4.91628122	2.88235283
4.91628122	2.78431368
4.92029524	2.86274505
4.92543983	2.54901958
4.92912626	2.29411769
4.92912626	2.70588231
4.93317318	2.78431368
4.93693352	2.19607854
4.94098043	2.17647052
4.94098043	2.35294127
4.94501066	1.76470590
4.94912291	1.92156863
4.95305538	2.05882359
4.95714283	1.78431368
4.96133757	1.94117641
4.96133757	2.09803915
4.96556425	1.64705884
4.96966028	2.11764717
4.97369909	2.56862736
4.97369909	2.03921580
4.97783613	2.03921580
4.98174381	2.23529410
4.98591328	2.05882359
4.98591328	1.96078432
4.99041080	2.54901958
4.99404812	2.76470590
4.99817657	2.49019599
5.00218248	2.86274505
5.00636864	2.39215684
5.00636864	2.70588231
5.01040745	3.25490189
5.01473284	3.01960778
5.01859951	2.74509811
5.01859951	2.84313726
5.02276897	2.92156863
5.02683258	2.37254906
5.03235388	2.78431368
5.03235388	3.13725495
5.03643322	2.52941179
5.04043913	2.47058821
5.04320812	2.25490189
5.04776287	1.98039210
5.05177689	2.41176462
5.05177689	2.41176462
5.05590582	1.84313726
5.05968237	1.86274505
5.06363916	2.11764717
5.06363916	1.60784316
5.06779242	1.92156863
5.07206059	2.43137264
5.07591867	2.19607854
5.07591867	1.98039210
5.08028507	2.15686274
5.08408642	2.25490189
5.08865738	2.29411769
5.09313822	2.70588231
5.09692335	2.21568632
5.09692335	2.33333325
5.10202694	2.62745094
5.10559845	2.52941179
5.10899830	2.60784316
5.10899830	3.27450991
5.11301231	3.50980401
5.11710024	3.13725495
5.12135983	3.33333325
5.12135983	3.64705873
5.12542295	3.15686274
5.12955189	3.41176462
5.13350868	3.49019599
5.13753891	3.15686274
5.14159393	3.21568632
5.14159393	3.13725495
5.14554262	2.54901958
5.14964676	2.88235283
5.15401316	3.05882359
5.15401316	2.35294127
5.15809298	2.11764717
5.16224623	2.11764717
5.16630125	1.62745094
5.16630125	1.41176474
5.17083979	1.80392158
5.17440319	1.78431368
5.17440319	1.29411769
5.17861366	1.35294116
5.18366814	1.66666663
5.18660927	1.19607842
5.18660927	1.58823526
5.19060707	2.13725495
5.19488287	1.94117641
5.19901991	1.92156863
5.19901991	2.29411769
5.20314074	2.50980401
5.20724487	2.27450991
5.21117687	2.96078420
5.21117687	3.47058821
5.21546125	3.01960778
5.21978664	3.15686274
5.21978664	3.39215684
5.22387457	3.13725495
5.22792959	3.13725495
5.23223019	3.64705873
5.23223019	3.64705873
5.23586750	3.17647052
5.23990631	3.11764717
5.24401855	3.29411769
5.24401855	2.62745094
5.24805737	2.78431368
5.25206327	3.09803915
5.25615931	2.58823538
5.25615931	2.27450991
5.26050091	2.35294127
5.26463795	2.25490189
5.26463795	1.74509799
5.26868486	2.15686274
5.27260876	2.41176462
5.27693415	1.76470590
5.27693415	1.70588231
5.28217697	1.82352936
5.28624868	1.43137252
5.28927946	1.39215684
5.28927946	1.84313726
5.29312992	1.80392158
5.29765987	1.33333337
5.30160046	1.45098042
5.30160046	1.76470590
5.30563068	1.31372547
5.30954647	1.74509799
5.30954647	2.37254906
5.31356049	2.09803915
5.31759930	2.07843137
5.32201481	2.39215684
5.32201481	2.45098042
5.32578325	2.17647052
5.33017397	2.78431368
5.33421278	3.19607854
5.33421278	2.66666675
5.33854628	2.80392146
5.34248638	3.05882359
5.34678745	2.78431368
5.34678745	2.86274505
5.35081768	3.43137264
5.35539722	3.45098042
5.35539722	3.07843137
5.35926390	3.19607854
5.36326981	3.47058821
5.36707067	2.92156863
5.36707067	3.21568632
5.37112570	3.56862736
5.37518072	3.01960778
5.37927675	2.66666675
5.37927675	2.60784316
5.38334799	2.23529410
5.38744402	1.54901958
5.39147472	1.70588231
5.39543962	0.84313726
5.39980602	0.66666669
5.39980602	0.72549021
5.40368080	0.27450982
5.40801430	0.39215687
5.41197920	1.03921568
5.41197920	1.21568632
5.41616535	1.09803927
5.42155552	1.52941179
5.42564344	2.09803915
5.42564344	1.84313726
5.42856789	2.52941179
5.43284416	3.27450991
5.43648958	3.19607854
5.44049549	3.56862736
5.44468975	3.58823538
5.44468975	3.39215684
5.44869566	3.96078420
5.45278358	4.27450991
5.45689583	3.68627453
5.45689583	3.72549009
5.46103287	3.86274505
5.46508789	3.39215684
5.46916771	3.39215684
5.46916771	3.76470590
5.47329617	3.56862736
5.47737598	3.03921580
5.48188162	2.96078420
5.48565817	2.11764717
5.48972940	2.23529410
5.48972940	2.39215684
5.49382544	1.62745094
5.49784803	1.29411769
5.50195217	1.25490201
5.50195217	1.05882359
5.50601530	0.70588237
5.51015234	1.23529410
5.51437950	1.64705884
5.51437950	1.25490201
5.51860619	1.54901958
5.52273512	2.03921580
5.52688026	2.27450991
5.53113174	3.03921580
5.53512144	3.17647052
5.53512144	3.03921580
5.53913546	3.31372547
5.54352617	3.70588231
5.54757309	3.25490189
5.54757309	3.74509811
5.55127621	4.23529434
5.55565882	3.80392146
5.55930424	3.74509811
5.55930424	3.94117641
5.56336737	3.78431368
5.56745529	3.47058821
5.57181358	3.96078420
5.57591772	3.19607854
5.57995605	3.03921580
5.57995605	3.01960778
5.58401966	2.31372547
5.58805799	2.23529410
5.59287500	2.52941179
5.59287500	2.15686274
5.59738874	1.66666663
5.60175514	1.64705884
5.60486794	1.72549021
5.60486794	1.15686274
5.60977507	1.60784316
5.61292887	2.13725495
5.61709881	1.90196073
5.62122774	2.29411769
5.62493038	2.29411769
5.62493038	2.29411769
5.62893629	3.00000000
5.63299942	3.41176462
5.63707066	3.00000000
5.63707066	3.23529410
5.64119959	3.58823538
5.64532042	3.17647052
5.64940786	3.37254906
5.64940786	3.84313726
5.65362692	3.64705873
5.65785408	3.27450991
5.66204834	3.43137264
5.66589832	2.82352948
5.67033052	3.15686274
5.67033052	3.45098042
5.67453289	2.80392146
5.67861271	2.60784316
5.68270016	2.58823538
5.68270016	2.17647052
5.68637848	1.74509799
5.69036818	2.01960778
5.69460344	1.98039210
5.69460344	1.27450979
5.69872379	1.21568632
5.70275450	1.41176474
5.70275450	0.94117647
5.70679283	1.19607842
5.71088076	1.80392158
5.71522236	1.66666663
5.71522236	1.50980389
5.71915483	1.74509799
5.72359467	2.00000000
5.72737932	1.54901958
5.72737932	2.07843137
5.73189306	2.54901958
5.73643970	2.07843137
5.74060965	2.09803915
5.74060965	2.33333325
5.74371433	2.13725495
5.74783468	2.01960778
5.74783468	2.56862736
5.75180817	2.78431368
5.75595331	2.27450991
5.76010656	2.37254906
5.76010656	2.68627453
5.76436615	2.19607854
5.76834774	2.41176462
5.77255821	2.90196085
5.77255821	2.62745094
5.77672005	2.31372547
5.78188086	2.43137264
5.78502655	2.49019599
5.78502655	1.92156863
5.78875399	2.35294127
5.79289103	2.70588231
5.79289103	2.09803915
5.79735565	2.03921580
5.80155802	2.21568632
5.80526066	2.00000000
5.80526066	1.88235295
5.80925846	2.45098042
5.81332159	2.58823538
5.81737661	2.11764717
5.81737661	2.25490189
5.82144022	2.58823538
5.82553577	2.13725495
5.82981205	2.47058821
5.82981205	3.05882359
5.83394909	2.84313726
5.83793879	2.68627453
5.83793879	2.88235283
5.84240341	3.01960778
5.84682703	2.52941179
5.85163593	3.00000000
5.85163593	3.37254906
5.85565805	2.76470590
5.85910702	2.76470590
5.86247396	2.92156863
5.86247396	2.58823538
5.86647940	2.47058821
5.87060833	2.98039222
5.87479448	3.00000000
5.87479448	2.39215684
5.87881660	2.35294127
5.88289642	2.50980401
5.88289642	1.84313726
5.88727093	2.03921580
5.89135885	2.45098042
5.89529896	2.09803915
5.89529896	1.88235295
5.89949322	2.05882359
5.90366316	2.19607854
5.90774250	1.78431368
5.90774250	2.31372547
5.91186333	2.74509811
5.91621304	2.25490189
5.92007971	2.52941179
5.92438889	2.29411769
5.92822266	2.25490189
5.92822266	2.80392146
5.93237591	2.86274505
5.93641472	2.41176462
5.94047785	2.47058821
5.94047785	2.76470590
5.94453287	2.25490189
5.94857979	2.56862736
5.95261860	3.09803915
5.95261860	2.78431368
5.95667362	2.56862736
5.96104813	2.74509811
5.96496391	2.29411769
5.96915817	2.76470590
5.97327042	3.11764717
5.97327042	2.52941179
5.97723532	2.54901958
5.98121691	2.76470590
5.98538637	2.43137264
5.98538637	2.39215684
5.98947430	2.88235283
5.99356222	2.90196085
5.99765015	2.35294127
5.99765015	2.35294127
6.00172138	2.52941179
6.00576830	1.90196073
6.00985622	2.56862736
6.01400137	2.19607854
6.01805639	2.05882359
6.01805639	2.29411769
6.02212763	2.33333325
6.02720642	1.98039210
6.03086853	2.54901958
6.03086853	2.96078420
6.03564453	2.41176462
6.03903580	2.52941179
6.04354954	2.74509811
6.04354954	2.47058821
6.04718685	2.47058821
6.05127478	3.03921580
6.05531359	2.62745094
6.05913925	2.70588231
6.06317759	2.96078420
6.06317759	2.37254906
6.06724119	2.68627453
6.07150078	3.11764717
6.07570314	2.66666675
6.07570314	2.47058821
6.07979107	2.62745094
6.08362484	2.62745094
6.08790112	2.25490189
6.08790112	2.84313726
6.09184170	3.23529410
6.09597826	2.76470590
6.09998417	3.05882359
6.10410500	2.70588231
6.10822535	2.66666675
6.10822535	3.07843137
6.11232138	2.96078420
6.11643410	2.35294127
6.12051344	2.35294127
6.12051344	2.47058821
6.12458515	1.78431368
6.12873840	2.05882359
6.13308811	2.45098042
6.13308811	1.98039210
6.13684845	1.86274505
6.14095259	2.05882359
6.14513063	1.72549021
6.14941502	2.25490189
6.15374851	2.60784316
6.15374851	2.03921580
6.15772963	2.07843137
6.16196489	2.29411769
6.16593838	1.92156863
6.16593838	1.98039210
6.17005062	2.50980401
6.17408085	2.47058821
6.17799664	2.05882359
6.17799664	2.15686274
6.18243694	2.41176462
6.18609858	1.84313726
6.19012117	2.76470590
6.19427443	2.39215684
6.19857502	2.37254906
6.19857502	2.60784316
6.20266294	2.58823538
6.20674276	2.31372547
6.21069098	2.82352948
6.21069098	3.03921580
6.21612215	2.39215684
6.21911240	2.35294127
6.22433901	2.47058821
6.22433901	1.92156863
6.22727966	1.90196073
6.23212957	2.35294127
6.23212957	2.17647052
6.23591423	1.76470590
6.23975611	1.86274505
6.24407339	2.09803915
6.24407339	1.56862748
6.24778461	2.01960778
6.25179052	2.54901958
6.25588655	2.11764717
6.25588655	2.09803915
6.25999880	2.35294127
6.26402903	2.31372547
6.26807594	2.05882359
6.26807594	2.62745094
6.27204895	2.94117641
6.27642345	2.41176462
6.27642345	2.50980401
6.28051949	2.74509811
6.28458309	2.39215684
6.28869534	2.54901958
6.28869534	3.11764717
6.29308605	3.05882359
6.29773092	2.72549009
6.30106544	2.86274505
6.30106544	3.05882359
6.30512857	2.39215684
6.30920792	2.72549009
6.31323862	3.07843137
6.31323862	2.49019599
6.31734276	2.35294127
6.32138157	2.50980401
6.32138157	2.37254906
6.32541990	2.09803915
6.32940960	2.62745094
6.33353853	2.88235283
6.33353853	2.27450991
6.33779812	2.29411769
6.34194326	2.50980401
6.34608030	2.05882359
6.34608030	2.15686274
6.34997129	2.70588231
6.35554218	2.58823538
6.35873699	2.27450991
6.35873699	2.45098042
6.36287403	2.72549009
6.36785460	2.21568632
6.36785460	2.68627453
6.37152481	3.13725495
6.37457180	2.74509811
6.37858629	2.72549009
6.37858629	2.96078420
6.38263273	2.86274505
6.38701582	2.68627453
6.39093161	3.27450991
6.39093161	3.52941179
6.39504385	3.01960778
6.39924622	3.07843137
6.40339136	3.33333325
6.40339136	2.86274505
6.40779877	3.00000000
6.41166544	3.47058821
6.41166544	3.23529410
6.41552401	2.86274505
6.41984940	2.92156863
6.42401075	3.03921580
6.42401075	2.39215684
6.42786932	2.72549009
6.43224382	3.03921580
6.43602037	2.45098042
6.43602037	2.37254906
6.43998528	2.52941179
6.44412231	2.37254906
6.44842291	2.78431368
6.45254326	3.03921580
6.45659876	2.54901958
6.45659876	2.68627453
6.46054697	3.00000000
6.46484804	2.54901958
6.47011518	2.78431368
6.47011518	3.27450991
6.47327757	3.03921580
6.47719336	2.66666675
6.48212481	2.74509811
6.48212481	2.78431368
6.48580313	2.17647052
6.48975992	2.50980401
6.49394608	2.23529410
6.49768162	2.17647052
6.50170374	2.29411769
6.50170374	2.09803915
6.50575066	1.90196073
6.50981379	2.39215684
6.51386881	2.54901958
6.51386881	2.00000000
6.51792383	2.05882359
6.52192974	2.31372547
6.52630424	1.82352936
6.52630424	2.07843137
6.53032637	2.60784316
6.53435707	2.39215684
6.53837919	2.31372547
6.54322052	2.45098042
6.54707098	1.94117641
6.54707098	2.39215684
6.55068350	2.76470590
6.55554152	2.17647052
6.55892467	2.15686274
6.55892467	2.31372547
6.56292248	2.09803915
6.56700230	1.94117641
6.57134390	2.47058821
6.57134390	2.64705873
6.57541513	2.11764717
6.57947874	2.17647052
6.58336973	1.84313726
6.58794069	2.00000000
6.59308529	2.45098042
6.59308529	2.13725495
6.59589529	1.82352936
6.60011435	1.98039210
6.60406256	2.15686274
6.60406256	1.72549021
6.60815048	2.33333325
6.61235285	2.86274505
6.61652279	2.47058821
6.61652279	2.62745094
6.62065172	2.94117641
6.62444448	2.78431368
6.62853241	3.29411769
6.63253832	3.39215684
6.63665867	2.82352948
6.63665867	2.78431368
6.64075470	2.96078420
6.64485073	2.31372547
6.64916801	2.43137264
6.64916801	2.84313726
6.65304279	2.49019599
6.65775299	2.21568632
6.66142321	2.35294127
6.66142321	2.41176462
6.66537142	1.96078432
6.67046690	2.43137264
6.67416143	2.17647052
6.67787266	2.15686274
6.68205070	2.33333325
6.68205070	2.00000000
6.68584347	1.92156863
6.68994761	2.49019599
6.69400263	2.60784316
6.69400263	2.15686274
6.69808245	2.29411769
6.70214558	2.60784316
6.70625782	2.07843137
6.70625782	2.37254906
6.71034575	2.82352948
6.71449900	2.43137264
6.71856213	2.25490189
6.72266626	2.25490189
6.72675419	1.68627453
6.72675419	2.15686274
6.73141575	2.49019599
6.73557711	1.88235295
6.73941898	1.94117641
6.73941898	2.19607854
6.74339247	1.94117641
6.74737358	2.01960778
6.75134659	2.68627453
6.75134659	2.90196085
6.75543451	2.58823538
6.75958776	2.86274505
6.75958776	3.27450991
6.76389694	2.88235283
6.76777172	3.33333325
6.77195787	3.88235283
6.77195787	3.58823538
6.77601290	3.43137264
6.78038740	3.56862736
6.78443432	3.50980401
6.78443432	2.94117641
6.78823519	3.25490189
6.79231501	3.41176462
6.79646015	2.60784316
6.79646015	2.39215684
6.80052328	2.39215684
6.80463552	1.88235295
6.80463552	1.72549021
6.80933809	2.13725495
6.81284380	2.09803915
6.81688261	1.60784316
6.81688261	1.66666663
6.82105255	1.96078432
6.82536125	1.45098042
6.82925272	1.86274505
6.82925272	2.39215684
6.83353710	2.07843137
6.83741999	2.00000000
6.84199095	2.27450991
6.84199095	2.37254906
6.84569407	2.05882359
6.85024071	2.66666675
6.85024071	3.07843137
6.85409880	2.58823538
6.85790825	2.68627453
6.86212730	2.98039222
6.86212730	2.68627453
6.86635399	2.80392146
6.87067127	3.43137264
6.87430048	3.49019599
6.87430048	3.11764717
6.87831450	3.17647052
6.88243484	3.39215684
6.88676882	2.72549009
6.88676882	2.92156863
6.89084005	3.19607854
6.89508343	2.58823538
6.89508343	2.23529410
6.89896631	2.25490189
6.90386534	2.07843137
6.90724850	1.58823526
6.90724850	2.07843137
6.91113186	2.39215684
6.91545725	1.78431368
6.92027378	1.86274505
6.92027378	2.11764717
6.92373896	1.80392158
6.92762232	1.88235295
6.93175077	2.47058821
6.93175077	2.50980401
6.93574858	2.13725495
6.93976259	2.29411769
6.93976259	2.56862736
6.94385862	2.05882359
6.94798756	2.49019599
6.95232105	3.03921580
6.95232105	2.62745094
6.95639229	2.58823538
6.96043110	2.80392146
6.96487951	2.74509811
6.96487951	2.35294127
6.96865606	2.82352948
6.97364473	3.01960778
6.97716713	2.23529410
6.98109961	2.29411769
6.98526907	1.78431368
6.98526907	1.72549021
6.98895550	2.17647052
6.99305964	2.03921580
6.99724579	1.64705884
6.99724579	1.78431368
7.00116158	2.11764717
7.00525761	1.64705884
7.00965691	2.19607854
7.00965691	2.78431368
7.01353168	2.43137264
7.01784897	2.47058821
7.02168274	2.72549009
7.02608156	2.45098042
7.03133297	3.05882359
7.03133297	3.37254906
7.03409338	2.82352948
7.03949213	2.92156863
7.04347324	3.11764717
7.04347324	2.70588231
7.04670906	2.78431368
7.05050230	3.29411769
7.05498314	3.17647052
7.05498314	2.76470590
7.05889893	2.82352948
7.06269979	3.01960778
7.06676340	2.70588231
7.07081842	3.03921580
7.07491446	2.47058821
7.07491446	2.33333325
7.07907581	2.45098042
7.08307362	2.29411769
7.08721066	2.00000000
7.08721066	2.52941179
7.09137201	2.80392146
7.09544325	2.23529410
7.09948206	2.33333325
7.09948206	2.62745094
7.10361910	2.21568632
7.10777235	2.39215684
7.11196661	2.86274505
7.11590719	2.49019599
7.12004423	2.60784316
7.12004423	2.80392146
7.12417269	2.19607854
7.12816238	2.58823538
7.13230753	3.01960778
7.13230753	2.52941179
7.13665724	2.45098042
7.14075327	2.62745094
7.14461184	2.45098042
7.14461184	2.13725495
7.14879799	2.62745094
7.15301704	2.82352948
7.15744877	2.21568632
7.16115952	2.47058821
7.16561604	2.05882359
7.16561604	2.25490189
7.16958904	2.88235283
7.17340660	2.82352948
7.17760944	2.64705873
7.17760944	2.90196085
7.18200016	3.15686274
7.18566179	2.64705873
7.18971682	3.07843137
7.18971682	3.41176462
7.19379663	2.74509811
7.19803190	2.50980401
7.20218515	2.09803915
7.20626497	1.68627453
7.21019697	2.00000000
7.21019697	2.05882359
7.21450615	1.37254906
7.21840525	1.35294116
7.22248507	1.60784316
7.22248507	1.19607842
7.22649908	1.50980389
7.23060322	2.17647052
7.23465824	2.23529410
7.23465824	2.13725495
7.23880339	2.50980401
7.24289942	2.88235283
7.24702024	3.01960778
7.25105858	3.45098042
7.25518751	2.94117641
7.25518751	2.88235283
7.25935698	3.05882359
7.26366615	2.80392146
7.26770496	2.58823538
7.26770496	3.05882359
7.27180099	3.19607854
7.27624083	2.60784316
7.28003359	2.56862736
7.28003359	2.74509811
7.28390884	2.17647052
7.28798819	2.27450991
7.28798819	2.64705873
7.29249382	2.31372547
7.29636049	1.86274505
7.30078411	1.90196073
7.30078411	1.94117641
7.30480623	1.31372547
7.30889416	1.72549021
7.31286716	2.17647052
7.31286716	1.66666663
7.31682396	1.72549021
7.32099390	2.05882359
7.32503223	1.98039210
7.32503223	1.98039210
7.32912827	2.64705873
7.33323240	2.94117641
7.33323240	2.54901958
7.33721399	2.72549009
7.34119511	3.07843137
7.34535694	2.62745094
7.34535694	2.92156863
7.34940386	3.43137264
7.35348320	3.19607854
7.35780048	2.94117641
7.35780048	3.03921580
7.36179018	3.11764717
7.36713123	2.58823538
7.37133360	3.01960778
7.37133360	3.37254906
7.37401247	2.80392146
7.37804270	2.78431368
7.37804270	2.94117641
7.38218784	2.68627453
7.38649702	2.49019599
7.39055204	2.96078420
7.39055204	3.01960778
7.39444304	2.37254906
7.39867020	2.39215684
7.40423250	2.54901958
7.40423250	2.00000000
7.40741920	2.17647052
7.41093397	2.68627453
7.41634846	2.41176462
7.41634846	2.17647052
7.42040348	2.33333325
7.42325449	2.45098042
7.42325449	1.96078432
7.42753077	2.43137264
7.43174982	2.82352948
7.43551779	2.27450991
7.43551779	2.27450991
7.43954039	2.47058821
7.44359541	2.19607854
7.44803524	2.07843137
7.44803524	2.54901958
7.45203304	2.58823538
7.45609617	2.00000000
7.46017599	2.27450991
7.46437836	1.70588231
7.46857262	2.01960778
7.46857262	2.56862736
7.47256231	2.35294127
7.47667456	2.23529410
7.48181105	2.50980401
7.48181105	2.68627453
7.48585796	2.31372547
7.48894596	2.86274505
7.49319792	3.25490189
7.49319792	2.60784316
7.49717903	2.56862736
7.50116873	2.64705873
7.50525665	2.01960778
7.50928688	2.45098042
7.51324368	2.47058821
7.51324368	1.92156863
7.51731491	2.00000000
7.52160788	2.31372547
7.52572823	1.76470590
7.52572823	2.09803915
7.52984905	2.62745094
7.53398561	2.27450991
7.53868818	2.07843137
7.53868818	2.29411769
7.54318523	2.33333325
7.54606915	1.84313726
7.55113983	2.76470590
7.55459690	2.17647052
7.55844688	2.27450991
7.55844688	2.52941179
7.56241226	2.33333325
7.56650782	2.43137264
7.57061243	3.07843137
7.57061243	3.29411769
7.57492924	2.92156863
7.57892704	3.05882359
7.58313799	3.35294127
7.58313799	2.72549009
7.58720112	2.90196085
7.59123945	3.21568632
7.59528637	2.31372547
7.59982491	2.35294127
7.60347843	2.23529410
7.60347843	1.74509799
7.60759068	2.17647052
7.61171150	2.52941179
7.61605310	1.94117641
7.61605310	2.01960778
7.62021494	2.27450991
7.62395048	1.98039210
7.62802982	2.01960778
7.62802982	2.60784316
7.63207674	2.60784316
7.63615656	2.15686274
7.64022779	2.50980401
7.64430761	1.92156863
7.64846897	2.29411769
7.64846897	2.78431368
7.65250778	2.43137264
7.65668535	2.35294127
7.66076517	2.62745094
7.66076517	2.74509811
7.66493511	2.52941179
7.66945696	3.21568632
7.67313528	3.66666675
7.67313528	3.17647052
7.67726374	3.31372547
7.68131876	3.47058821
7.68532467	2.90196085
7.68936348	3.25490189
7.69350863	3.01960778
7.69350863	2.39215684
7.69758844	2.29411769
7.70197105	2.41176462
7.70608330	1.72549021
7.70608330	2.00000000
7.71012211	2.41176462
7.71423435	1.98039210
7.71853495	1.84313726
7.71853495	2.05882359
7.72272968	2.05882359
7.72672701	1.74509799
7.73090506	2.68627453
7.73508310	2.11764717
7.73869562	2.23529410
7.73869562	2.49019599
7.74318504	2.13725495
7.74735451	2.25490189
7.75090170	2.84313726
7.75090170	2.82352948
7.75491571	2.45098042
7.75906086	2.54901958
7.76342726	2.84313726
7.76342726	2.25490189
7.76746607	2.66666675
7.77154541	3.11764717
7.77154541	2.70588231
7.77564144	2.60784316
7.77963924	2.82352948
7.78521824	2.74509811
7.78521824	2.43137264
7.78777409	2.94117641
7.79203367	3.19607854
7.79593325	2.56862736
7.79593325	2.54901958
7.79998827	2.66666675
7.80409241	2.17647052
7.80819654	2.21568632
7.80819654	2.68627453
7.81227636	2.54901958
7.81641340	2.15686274
7.81641340	2.25490189
7.82048464	2.45098042
7.82457256	1.90196073
7.82874203	2.35294127
7.82874203	2.82352948
7.83305120	2.37254906
7.83690119	2.31372547
7.84256220	2.52941179
7.84256220	2.43137264
7.84518337	2.13725495
7.85055733	2.70588231
7.85454702	2.94117641
7.85454702	2.39215684
7.85856915	2.49019599
7.86151838	2.78431368
7.86151838	2.45098042
7.86604834	2.60784316
7.86992311	3.27450991
7.87380648	3.23529410
7.87380648	2.98039222
7.87780380	3.23529410
7.88194084	3.49019599
7.88626623	2.94117641
7.88626623	3.37254906
7.89036226	3.80392146
7.89422894	3.25490189
7.89860344	3.09803915
7.89860344	3.15686274
7.90265036	2.86274505
7.90677071	2.45098042
7.90677071	2.78431368
7.91080952	2.82352948
7.91540527	2.13725495
7.91928005	2.07843137
7.91928005	2.25490189
7.92297459	1.72549021
7.92757845	1.84313726
7.93159294	2.33333325
7.93159294	2.13725495
7.93524647	1.76470590
7.93928480	1.86274505
7.94362688	2.00000000
7.94362688	1.41176474
7.94758368	1.80392158
7.95182705	2.19607854
7.95182705	1.70588231
7.95580006	1.68627453
7.95997000	1.94117641
7.96414757	1.84313726
7.96414757	1.72549021
7.96809626	2.37254906
7.97340488	2.66666675
7.97677135	2.19607854
7.97677135	2.37254906
7.98029423	2.66666675
7.98490620	2.25490189
7.98895311	2.96078420
7.99295092	2.72549009
7.99668646	2.33333325
7.99668646	2.39215684
8.00080681	2.45098042
8.00481319	1.78431368
8.00917912	2.13725495
8.00917912	2.45098042
8.01323414	1.86274505
8.01721573	1.78431368
8.02131939	1.98039210
8.02131939	1.80392158
8.02539921	1.62745094
8.02952003	2.19607854
8.03514004	1.92156863
8.03846550	2.01960778
8.04321671	2.33333325
8.04321671	1.88235295
8.04620743	2.17647052
8.04998302	2.74509811
8.05435848	2.60784316
8.05435848	2.39215684
8.05815887	2.62745094
8.06218147	2.84313726
8.06630993	2.35294127
8.06630993	2.88235283
8.07058620	3.33333325
8.07468224	2.82352948
8.07860661	2.96078420
8.08290672	2.70588231
8.08700275	2.47058821
8.08700275	2.94117641
8.09098434	3.05882359
8.09503174	2.39215684
8.10005283	2.43137264
8.10005283	2.66666675
8.10435390	2.15686274
8.10768795	2.37254906
8.11138248	2.88235283
8.11138248	2.64705873
8.11558533	2.39215684
8.12007427	2.60784316
8.12371159	2.27450991
8.12766838	2.80392146
8.13183022	3.23529410
8.13183022	2.72549009
8.13614655	2.74509811
8.14024258	2.96078420
8.14425659	2.70588231
8.14425659	2.56862736
8.14832020	3.07843137
8.15253067	3.17647052
8.15692997	2.60784316
8.15692997	2.62745094
8.16086197	2.90196085
8.16614628	2.35294127
8.16906261	3.13725495
8.17337990	2.88235283
8.17745113	2.60784316
8.17745113	2.76470590
8.18139172	2.84313726
8.18513489	2.25490189
8.18914890	2.66666675
8.18914890	2.94117641
8.19325352	2.25490189
8.19751358	2.17647052
8.20169067	2.29411769
8.20169067	1.98039210
8.20550823	1.86274505
8.20989132	2.39215684
8.21383953	1.98039210
8.21817303	2.05882359
8.22342491	2.35294127
8.22342491	1.84313726
8.22680759	2.19607854
8.23085499	2.80392146
8.23434448	2.58823538
8.23434448	2.45098042
8.23896503	2.70588231
8.24297047	2.82352948
8.24660778	2.37254906
8.24660778	2.86274505
8.25068760	3.25490189
8.25469303	2.66666675
8.25877285	2.96078420
8.26292610	2.70588231
8.26724339	2.68627453
8.26724339	3.23529410
8.27109337	3.25490189
8.27519798	2.70588231
8.27936745	2.68627453
8.27936745	2.86274505
8.28390598	2.19607854
8.28890324	2.43137264
8.29227829	2.86274505
8.29227829	2.47058821
8.29585838	2.23529410
8.29998684	2.33333325
8.29998684	2.29411769
8.30393505	1.78431368
8.30814648	2.17647052
8.31219292	2.45098042
8.31219292	1.78431368
8.31617451	1.72549021
8.32022095	1.90196073
8.32460403	1.52941179
8.32460403	1.52941179
8.32842922	2.09803915
8.33277988	2.17647052
8.33686733	1.76470590
8.33686733	1.90196073
8.34094715	2.25490189
8.34497738	1.76470590
8.34497738	2.13725495
8.34966278	2.68627453
8.35307884	2.39215684
8.35744572	2.25490189
8.35744572	2.49019599
8.36130428	2.52941179
8.36563778	2.13725495
8.36982346	2.66666675
8.36982346	3.03921580
8.37357521	2.47058821
8.37763119	2.52941179
8.38171864	2.74509811
8.38171864	2.47058821
8.38593769	2.52941179
8.39011574	3.11764717
8.39011574	3.11764717
8.39416218	2.64705873
8.39829063	2.66666675
8.40264893	2.82352948
8.40264893	2.13725495
8.40635967	2.33333325
8.41153717	2.62745094
8.41519928	2.07843137
8.41519928	1.84313726
8.41864014	1.92156863
8.42292404	1.82352936
8.42756081	1.41176474
8.42756081	1.92156863
8.43092823	2.29411769
8.43504047	1.72549021
8.43504047	1.88235295
8.43910313	2.21568632
8.44311714	1.98039210
8.44749165	2.15686274
8.44749165	2.78431368
8.45156384	2.88235283
8.45540524	2.52941179
8.45955086	2.60784316
8.45955086	2.82352948
8.46376133	2.23529410
8.46874237	2.60784316
8.47227287	3.07843137
8.47227287	2.64705873
8.47611523	2.56862736
8.48039913	2.82352948
8.48039913	2.80392146
8.48470020	2.47058821
8.48827171	3.03921580
8.49292469	3.35294127
8.49292469	2.74509811
8.49646378	2.80392146
8.50053501	2.98039222
8.50457382	2.54901958
8.50457382	2.56862736
8.50874329	3.00000000
8.51288891	2.88235283
8.51708317	2.33333325
8.52109718	2.43137264
8.52529144	1.74509799
8.52529144	2.00000000
8.52953529	2.35294127
8.53372955	1.86274505
8.53751373	1.76470590
8.53751373	1.96078432
8.54296970	1.98039210
8.54565716	1.74509799
8.55023575	2.41176462
8.55023575	2.84313726
8.55434895	2.41176462
8.55836296	2.62745094
8.56200790	2.64705873
8.56604671	2.82352948
8.57014275	3.43137264
8.57014275	3.41176462
8.57444382	3.09803915
8.57829380	3.29411769
8.58264351	3.54901958
8.58264351	2.98039222
8.58649349	3.35294127
8.59053230	3.76470590
8.59466171	3.19607854
8.59466171	2.98039222
8.59876537	3.03921580
8.60289478	2.78431368
8.60702324	2.68627453
8.61102867	2.78431368
8.61524010	2.05882359
8.61524010	1.98039210
8.61929512	2.11764717
8.62339115	1.62745094
8.62746239	1.76470590
8.62746239	2.35294127
8.63155842	2.33333325
8.63594055	2.07843137
8.64006138	2.33333325
8.64006138	2.68627453
8.64402676	2.21568632
8.64799118	2.76470590
8.65258694	2.90196085
8.65661716	2.92156863
8.66093445	3.17647052
8.66093445	3.09803915
8.66483402	2.86274505
8.66888905	3.41176462
8.67264938	3.68627453
8.67264938	3.09803915
8.67702389	3.13725495
8.68106270	3.31372547
8.68486309	2.80392146
8.68486309	2.82352948
8.68888569	3.17647052
8.69299793	2.86274505
8.69738102	2.29411769
8.70142746	2.35294127
8.70553970	1.66666663
8.70553970	2.03921580
8.70938206	2.43137264
8.71356010	1.90196073
8.71774578	1.86274505
8.71774578	2.03921580
8.72322655	1.90196073
8.72629833	1.64705884
8.73025513	2.15686274
8.73025513	2.37254906
8.73442554	1.82352936
8.73859501	1.84313726
8.74251080	1.66666663
8.74633598	1.90196073
8.75040722	2.47058821
8.75040722	2.35294127
8.75443840	2.09803915
8.75862408	2.31372547
8.76267910	2.58823538
8.76267910	2.13725495
8.76701260	2.62745094
8.77101898	3.09803915
8.77513885	2.60784316
8.77513885	2.54901958
8.77931690	2.68627453
8.78470802	2.41176462
8.78762436	2.52941179
8.79148197	2.60784316
8.79559517	2.01960778
8.79559517	2.05882359
8.79972363	2.35294127
8.80395889	1.92156863
8.80827618	2.23529410
8.80827618	2.86274505
8.81206036	2.72549009
8.81591892	2.49019599
8.82000732	2.66666675
8.82000732	2.84313726
8.82408619	2.25490189
8.82819080	2.60784316
8.82819080	2.94117641
8.83230305	2.31372547
8.83660412	2.19607854
8.84062576	2.25490189
8.84062576	1.98039210
8.84462357	1.72549021
8.84949780	2.25490189
8.85333157	2.41176462
8.85333157	1.90196073
8.85732937	2.03921580
8.86144161	2.41176462
8.86551380	1.94117641
8.86551380	2.27450991
8.86951160	2.88235283
8.87346745	2.66666675
8.87346745	2.43137264
8.87734318	2.62745094
8.88144684	2.74509811
8.88555908	2.21568632
8.88555908	2.64705873
8.88986874	3.01960778
8.89402199	2.43137264
8.89797020	2.39215684
8.89797020	2.58823538
8.90212345	2.35294127
8.90604782	2.29411769
8.91038895	2.90196085
8.91038895	3.09803915
8.91446877	2.62745094
8.91892529	2.76470590
8.91892529	3.07843137
8.92239857	2.56862736
8.92649460	2.80392146
8.93060684	3.25490189
8.93060684	2.90196085
8.93480110	2.54901958
8.93883991	2.60784316
8.94290352	2.56862736
8.94290352	1.94117641
8.94695854	2.33333325
8.95107079	2.62745094
8.95515823	1.94117641
8.95515823	1.90196073
8.95923805	2.03921580
8.96340752	1.76470590
8.96340752	1.66666663
8.96803665	2.25490189
8.97222233	2.39215684
8.97612190	1.94117641
8.97612190	2.07843137
8.98016834	2.41176462
8.98438740	1.94117641
8.98838520	2.27450991
8.98838520	2.84313726
8.99213696	2.58823538
8.99660969	2.41176462
9.00036240	2.68627453
9.00036240	2.76470590
9.00431061	2.31372547
9.00846386	2.86274505
9.00846386	3.23529410
9.01255989	2.68627453
9.01684475	2.74509811
9.02104664	2.98039222
9.02104664	2.70588231
9.02506065	2.64705873
9.02921391	3.13725495
9.03356457	3.15686274
9.03356457	2.54901958
9.03756142	2.49019599
9.04171562	2.58823538
9.04557323	2.01960778
9.04999733	2.37254906
9.05381489	1.92156863
9.05381489	1.64705884
9.05793571	1.78431368
9.06189251	1.80392158
9.06597996	1.39215684
9.06597996	1.96078432
9.07008457	2.39215684
9.07415581	1.90196073
9.07821846	2.07843137
9.07821846	2.39215684
9.08219147	2.19607854
9.08627129	2.31372547
9.09038353	3.11764717
9.09449673	2.72549009
9.09860039	2.86274505
9.09860039	3.17647052
9.10262299	2.62745094
9.10679245	2.94117641
9.11115074	3.37254906
9.11115074	2.98039222
9.11527157	2.78431368
9.11948967	2.92156863
9.12324238	2.90196085
9.12324238	2.47058821
9.12732983	2.98039222
9.13133526	3.29411769
9.13566113	2.66666675
9.13948631	2.78431368
9.14384460	2.37254906
9.14384460	2.23529410
9.14798164	2.62745094
9.15187263	2.50980401
9.15605927	1.92156863
9.15605927	1.88235295
9.16045856	2.07843137
9.16445637	1.45098042
9.16859245	1.74509799
9.16859245	2.17647052
9.17266464	1.78431368
9.17686653	1.64705884
9.18086433	1.92156863
9.18465710	1.62745094
9.18877792	2.29411769
9.18877792	2.76470590
9.19277573	2.31372547
9.19692898	2.54901958
9.20118904	2.90196085
9.20118904	2.72549009
9.20525169	2.88235283
9.20936489	3.56862736
9.21354198	3.66666675
9.21354198	3.33333325
9.21757317	3.50980401
9.22284031	3.78431368
9.22668266	3.54901958
9.23003292	3.98039222
9.23466110	3.45098042
9.23466110	3.21568632
9.23833179	3.25490189
9.24215698	3.07843137
9.24612999	2.54901958
9.24612999	2.90196085
9.25015259	3.03921580
9.25419140	2.27450991
9.25854969	2.21568632
9.25854969	2.31372547
9.26244068	1.82352936
9.26662636	1.86274505
9.27061653	2.31372547
9.27492523	1.92156863
9.27893925	2.03921580
9.27893925	2.29411769
9.28425598	1.72549021
9.28708172	2.13725495
9.29195595	2.60784316
9.29195595	2.17647052
9.29526615	2.09803915
9.29979610	2.35294127
9.30359745	2.33333325
9.30359745	2.03921580
9.30754566	2.64705873
9.31168270	3.01960778
9.31577873	2.64705873
9.31976795	2.98039222
9.32386398	2.62745094
9.32386398	2.80392146
9.32805061	3.39215684
9.33229351	3.35294127
9.33618450	2.94117641
9.33618450	3.05882359
9.34091949	3.23529410
9.34444237	2.58823538
9.34990597	2.92156863
9.34990597	3.25490189
9.35325718	2.64705873
9.35686970	2.47058821
9.35686970	2.50980401
9.36136723	2.31372547
9.36529922	1.90196073
9.36902618	2.39215684
9.36902618	2.64705873
9.37308121	2.01960778
9.37707138	2.03921580
9.38121605	2.27450991
9.38121605	1.84313726
9.38528728	1.94117641
9.38961315	2.49019599
9.39360237	2.35294127
9.39360237	2.00000000
9.39786243	2.09803915
9.40171242	2.33333325
9.40171242	1.78431368
9.40604591	2.23529410
9.41032219	2.74509811
9.41448402	2.31372547
9.41448402	2.29411769
9.41817856	2.58823538
9.42309380	2.52941179
9.42698479	2.35294127
9.42698479	2.94117641
9.43073654	3.25490189
9.43453789	2.72549009
9.43860912	2.80392146
9.43860912	3.07843137
9.44268894	2.64705873
9.44680119	2.82352948
9.44680119	3.35294127
9.45083141	3.19607854
9.45490360	2.86274505
9.45903206	2.92156863
9.45903206	3.05882359
9.46329975	2.39215684
9.46727276	2.70588231
9.47139359	3.00000000
9.47139359	2.31372547
9.47548962	2.11764717
9.47962666	2.19607854
9.48366547	1.92156863
9.48366547	1.58823526
9.48785973	2.09803915
9.49217701	2.35294127
9.49217701	1.84313726
9.49592018	1.98039210
9.50003338	2.35294127
9.50409603	1.98039210
9.50409603	2.25490189
9.50828266	2.86274505
9.51227188	2.72549009
9.51663780	2.41176462
9.51663780	2.56862736
9.52069283	2.72549009
9.52475643	2.11764717
9.52880287	2.50980401
9.52880287	2.90196085
9.53396416	2.31372547
9.53801918	2.19607854
9.53801918	2.35294127
9.54201698	2.11764717
9.54515457	1.90196073
9.54973412	2.41176462
9.54973412	2.62745094
9.55338764	2.00000000
9.55770493	2.03921580
9.56153870	2.23529410
9.56153870	1.66666663
9.56554413	1.80392158
9.56962395	2.27450991
9.57378578	1.78431368
9.57780743	2.00000000
9.58220673	2.23529410
9.58220673	1.80392158
9.58609009	2.31372547
9.59017754	2.76470590
9.59483051	2.27450991
9.59483051	2.29411769
9.59886169	2.45098042
9.60395718	2.23529410
9.60659409	2.07843137
9.60659409	2.64705873
9.61137009	2.80392146
9.61513042	2.27450991
9.61908722	2.70588231
9.62297821	2.23529410
9.62705040	2.50980401
9.62705040	3.07843137
9.63104725	2.84313726
9.63516808	2.56862736
9.63951778	2.74509811
9.63951778	2.86274505
9.64340115	2.33333325
9.64772701	2.78431368
9.65178967	3.17647052
9.65178967	2.54901958
9.65576267	2.47058821
9.66143227	2.58823538
9.66441345	1.94117641
9.66944313	2.33333325
9.67222023	2.35294127
9.67222023	1.70588231
9.67629242	1.68627453
9.68062592	1.92156863
9.68442631	1.37254906
9.68442631	1.66666663
9.68843269	2.19607854
9.69251251	2.01960778
9.69689465	1.84313726
9.69689465	2.11764717
9.70094967	2.33333325
9.70512009	1.90196073
9.70905209	3.00000000
9.71312332	2.50980401
9.71726036	2.62745094
9.71726036	2.98039222
9.72221661	2.82352948
9.72535419	2.80392146
9.72965431	3.47058821
9.72965431	3.64705873
9.73417664	3.19607854
9.73790455	3.31372547
9.74203300	3.60784316
9.74203300	3.05882359
9.74589920	3.33333325
9.74993801	3.76470590
9.75395203	3.09803915
9.75806427	3.15686274
9.76217747	3.13725495
9.76217747	2.54901958
9.76645279	2.90196085
9.77032852	3.19607854
9.77469444	2.49019599
9.77469444	2.37254906
9.77871704	2.49019599
9.78410721	2.05882359
9.78828526	1.86274505
9.78828526	2.31372547
9.79085732	2.29411769
9.79505157	1.76470590
9.79973698	2.09803915
9.80369377	1.60784316
9.80728245	1.98039210
9.80728245	2.58823538
9.81135368	2.35294127
9.81540012	2.25490189
9.81951237	2.49019599
9.81951237	2.58823538
9.82371521	2.15686274
9.82776260	2.64705873
9.83207893	3.01960778
9.83207893	2.39215684
9.83612633	2.37254906
9.84021378	2.56862736
9.84523582	2.19607854
9.84952831	2.72549009
9.85259247	2.78431368
9.85259247	2.37254906
9.85661411	2.45098042
9.86084175	2.80392146
9.86505222	2.31372547
9.86505222	2.74509811
9.86915588	3.31372547
9.87294960	3.01960778
9.87694740	2.94117641
9.87694740	3.19607854
9.88101006	3.21568632
9.88508987	2.80392146
9.88508987	3.27450991
9.88928413	3.54901958
9.89346218	2.82352948
9.89753342	2.72549009
9.89753342	2.78431368
9.90164566	2.27450991
9.90552902	2.13725495
9.90973091	2.56862736
9.90973091	2.49019599
9.91395855	1.98039210
9.91789913	2.00000000
9.92335415	2.19607854
9.92335415	1.60784316
9.92714787	1.92156863
9.93055534	2.35294127
9.93055534	1.94117641
9.93472481	1.84313726
9.93832970	2.07843137
9.94240093	2.11764717
9.94240093	1.78431368
9.94649696	2.37254906
9.95053577	2.78431368
9.95463943	2.25490189
9.95463943	2.33333325
9.95903873	2.60784316
9.96293831	2.29411769
9.96721458	2.35294127
9.96721458	2.96078420
9.97117996	2.96078420
9.97534943	2.52941179
9.97534943	2.64705873
9.97936344	2.86274505
9.98379517	2.21568632
9.98781776	2.56862736
9.98781776	3.00000000
9.99194622	2.50980401
9.99575520	2.37254906
9.99984360	2.56862736
9.99984360	2.49019599
10.00384140	2.09803915
10.00791264	2.54901958
10.01204967	2.76470590
10.01204967	2.00000000
10.01610470	1.88235295
10.02033138	1.94117641
10.02033138	1.43137252
10.02454185	1.39215684
10.02838421	1.86274505
10.03268528	1.82352936
10.03268528	1.49019611
10.03709221	1.66666663
10.04113102	2.01960778
10.04530907	1.58823526
10.04530907	2.11764717
10.04933929	2.70588231
10.05353355	2.41176462
10.05728531	2.80392146
10.06129169	2.84313726
10.06534672	2.64705873
10.06534672	3.27450991
10.06936836	3.64705873
10.07355499	3.11764717
10.07781506	3.19607854
10.07781506	3.43137264
10.08192730	3.07843137
10.08598995	3.15686274
10.09009457	3.66666675
10.09009457	3.60784316
10.09430504	3.19607854
10.09858990	3.25490189
10.10265255	2.70588231
10.10657692	2.98039222
10.11054993	3.23529410
10.11054993	2.66666675
10.11462975	2.39215684
10.11881542	2.43137264
10.12303448	2.23529410
10.12303448	1.82352936
10.12702370	2.25490189
10.13084984	2.50980401
10.13492966	1.90196073
10.13492966	1.98039210
10.13924694	2.23529410
10.14334297	1.88235295
10.14750385	2.74509811
10.15153503	2.70588231
10.15563869	2.45098042
10.15563869	2.66666675
10.15975094	2.96078420
10.16388035	2.43137264
10.16845131	2.90196085
10.16845131	3.39215684
10.17292404	2.90196085
10.17617607	2.80392146
10.18044376	2.94117641
10.18044376	2.76470590
10.18435192	2.33333325
10.18835735	2.78431368
10.19248676	2.19607854
10.19656563	2.11764717
10.20070267	2.23529410
10.20070267	1.68627453
10.20472527	1.78431368
10.20884609	2.27450991
10.21288490	2.13725495
10.21288490	1.78431368
10.21684074	2.01960778
10.22116661	2.31372547
10.22526264	1.84313726
10.22526264	2.39215684
10.22913742	2.94117641
10.23349571	2.50980401
10.23886108	2.74509811
10.24255562	2.56862736
10.24565220	2.29411769
10.24565220	2.80392146
10.24966621	3.00000000
10.25369740	2.39215684
10.25807190	2.41176462
10.25807190	2.64705873
10.26187229	2.15686274
10.26604271	2.33333325
10.27034283	2.84313726
10.27034283	2.68627453
10.27435684	2.35294127
10.27881336	2.47058821
10.28386784	2.09803915
10.28690720	2.54901958
10.29133129	2.94117641
10.29133129	2.39215684
10.29513168	2.33333325
10.29936695	2.47058821
10.30336475	2.19607854
10.30336475	1.94117641
10.30744457	2.41176462
10.31113911	2.54901958
10.31517792	1.96078432
10.31517792	2.01960778
10.31925774	2.27450991
10.32359982	1.84313726
10.32769489	2.66666675
10.33184052	2.45098042
10.33578873	2.15686274
10.33578873	2.31372547
10.34000778	2.43137264
10.34513569	1.80392158
10.34806919	2.17647052
10.34806919	2.49019599
10.35336876	1.88235295
10.35754681	1.80392158
10.36064339	1.92156863
10.36064339	1.70588231
10.36478901	1.58823526
10.36884403	2.11764717
10.37274361	1.94117641
10.37665939	2.11764717
10.38081264	2.52941179
10.38081264	2.19607854
10.38481045	2.56862736
10.38888168	3.21568632
10.39305973	3.11764717
10.39305973	2.96078420
10.39728642	3.19607854
10.40141487	3.41176462
10.40672398	2.92156863
10.40672398	3.39215684
10.40983677	3.80392146
10.41362095	3.21568632
10.41362095	3.13725495
10.41888905	3.27450991
10.42273903	2.92156863
10.42612267	2.64705873
10.42612267	3.07843137
10.42993927	3.09803915
10.43405247	2.37254906
10.43809891	2.25490189
10.43809891	2.33333325
10.44215393	1.58823526
10.44629097	1.66666663
10.45036221	2.00000000
10.45036221	1.56862748
10.45466328	1.23529410
10.45853806	1.35294116
10.45853806	1.50980389
10.46265888	1.07843137
10.46685314	1.68627453
10.47149754	2.23529410
10.47149754	1.84313726
10.47557735	2.03921580
10.47941113	2.39215684
10.48364639	2.27450991
10.48364639	2.31372547
10.48799610	2.96078420
10.49209213	3.19607854
10.49573803	2.72549009
10.49573803	2.86274505
10.49973583	3.21568632
10.50380707	2.76470590
10.50380707	3.09803915
10.50789452	3.70588231
10.51199055	3.47058821
10.51599693	3.31372547
10.51599693	3.52941179
10.51997757	3.62745094
10.52431202	3.13725495
10.52842426	3.50980401
10.52842426	3.78431368
10.53254414	3.05882359
10.53659153	2.82352948
10.54136753	2.80392146
10.54136753	2.29411769
10.54527473	1.98039210
10.54991150	2.35294127
10.54991150	2.27450991
10.55358124	1.64705884
10.55749702	1.62745094
10.56101131	1.86274505
10.56101131	1.25490201
10.56501770	1.56862748
10.56912136	2.09803915
10.57343102	1.80392158
10.57343102	1.68627453
10.57756805	1.96078432
10.58169651	2.13725495
10.58566952	2.39215684
10.58980656	2.88235283
10.59437752	2.39215684
10.59437752	2.45098042
10.59809685	2.72549009
10.60251236	2.47058821
10.60637856	2.47058821
10.60637856	3.03921580
10.61058140	3.09803915
10.61468601	2.62745094
10.61862564	2.64705873
10.61862564	2.90196085
10.62260723	2.31372547
10.62651539	2.62745094
10.63062763	2.74509811
10.63468266	2.50980401
10.63901615	2.68627453
10.63901615	2.66666675
10.64307880	2.19607854
10.64721584	2.64705873
10.65104198	2.98039222
10.65104198	2.31372547
10.65534306	2.29411769
10.65985680	2.41176462
10.66358376	2.03921580
10.66358376	1.98039210
10.66854763	2.49019599
10.67230797	2.49019599
10.67628098	2.11764717
10.68016434	2.41176462
10.68414593	1.80392158
10.68414593	2.17647052
10.68801212	2.66666675
10.69200993	2.33333325
10.69617939	2.25490189
10.69617939	2.45098042
10.70043945	2.50980401
10.70438004	2.17647052
10.70866394	2.76470590
10.70866394	3.13725495
10.71253872	2.56862736
10.71662712	2.68627453
10.72081280	2.60784316
10.72499943	2.62745094
10.72904587	3.17647052
10.72904587	3.15686274
10.73315048	2.68627453
10.73813915	2.72549009
10.74158764	2.94117641
10.74158764	2.27450991
10.74554443	2.54901958
10.74945259	2.92156863
10.75354862	2.45098042
10.75354862	2.19607854
10.75754642	2.27450991
10.76165867	2.13725495
10.76604939	2.07843137
10.77008820	2.31372547
10.77401161	1.64705884
10.77401161	1.64705884
10.77910709	1.86274505
10.78220367	1.45098042
10.78628349	1.52941179
10.78628349	2.05882359
10.79032993	2.09803915
10.79447556	1.72549021
10.79858017	1.90196073
10.79858017	2.25490189
10.80265141	1.80392158
10.80684566	2.35294127
10.81089211	2.72549009
10.81493092	2.74509811
10.81903553	3.07843137
10.81903553	3.09803915
10.82333565	2.84313726
10.82728481	3.37254906
10.83161831	3.72549009
10.83161831	3.13725495
10.83561611	3.13725495
10.83971214	3.33333325
10.84413528	2.90196085
10.84413528	2.90196085
10.84810829	3.33333325
10.85236835	3.21568632
10.85639095	2.68627453
10.86056900	2.84313726
10.86418915	2.11764717
10.86418915	2.41176462
10.86872005	2.76470590
10.87234879	2.21568632
10.87641144	2.07843137
10.87641144	2.21568632
10.88048363	2.11764717
10.88466167	1.80392158
10.88882256	2.37254906
10.88882256	2.70588231
10.89295959	2.17647052
10.89692497	2.31372547
10.89692497	2.64705873
10.90110302	2.33333325
10.90508366	2.54901958
10.90913868	3.13725495
10.90913868	3.15686274
10.91348934	2.84313726
10.91753578	3.01960778
10.92188549	3.29411769
10.92188549	2.74509811
10.92580128	3.15686274
10.92976665	3.56862736
10.93435383	2.98039222
10.93435383	2.82352948
10.93784332	2.90196085
10.94190693	2.66666675
10.94190693	2.23529410
10.94606018	2.66666675
10.95012379	2.86274505
10.95444870	2.19607854
10.95444870	2.17647052
10.95851994	2.35294127
10.96241188	1.88235295
10.96669579	1.94117641
10.96669579	2.47058821
10.97105408	2.31372547
10.97609234	1.98039210
10.97909069	2.09803915
10.97909069	2.35294127
10.98344040	1.82352936
10.98707771	2.31372547
10.98707771	2.80392146
10.99162388	2.37254906
10.99563026	2.39215684
10.99938202	2.68627453
10.99938202	2.64705873
11.00335503	2.45098042
11.00744247	3.03921580
11.01155567	3.31372547
11.01155567	2.72549009
11.01563454	2.72549009
11.01978874	2.86274505
11.02385139	2.31372547
11.02385139	2.35294127
11.02793980	2.76470590
11.03205204	2.45098042
11.03205204	1.98039210
11.03608990	2.00000000
11.04018593	2.11764717
11.04495430	1.45098042
11.04495430	1.88235295
11.04901695	2.27450991
11.05317116	1.76470590
11.05672646	1.76470590
11.05672646	2.03921580
11.06079769	1.94117641
11.06489372	1.82352936
11.06889153	2.50980401
11.06889153	2.80392146
11.07323265	2.33333325
11.07734489	2.47058821
11.07734489	2.74509811
11.08147430	2.27450991
11.08548832	2.43137264
11.08950233	2.90196085
11.08950233	2.62745094
11.09395027	2.23529410
11.09772682	2.37254906
11.10207653	2.50980401
11.10207653	1.92156863
11.10602570	2.39215684
11.10995770	2.80392146
11.11420155	2.13725495
11.11845303	2.31372547
11.12224579	2.09803915
11.12224579	1.86274505
11.12629223	2.39215684
11.13032341	2.60784316
11.13443565	2.03921580
11.13443565	2.13725495
11.13876915	2.49019599
11.14288139	2.05882359
11.14683819	2.35294127
11.14683819	2.98039222
11.15106487	2.84313726
11.15498066	2.62745094
11.15946198	3.05882359
11.16318130	2.60784316
11.16732597	3.15686274
11.16732597	3.62745094
11.17269230	3.09803915
11.17608356	3.13725495
11.17958927	3.33333325
11.17958927	3.07843137
11.18367767	2.92156863
11.18773270	3.39215684
11.19177914	3.47058821
11.19177914	2.90196085
11.19595718	2.90196085
11.20023346	3.05882359
11.20409203	2.66666675
11.20810604	3.07843137
11.21224308	2.72549009
11.21224308	2.33333325
11.21636391	2.39215684
11.22042656	2.35294127
11.22455597	1.70588231
11.22455597	2.03921580
11.22865963	2.29411769
11.23338604	1.64705884
11.23703194	1.56862748
11.23703194	1.74509799
11.24142265	1.50980389
11.24509239	1.47058821
11.24914837	2.33333325
11.25328445	1.92156863
11.25733185	2.11764717
11.25733185	2.50980401
11.26138687	2.07843137
11.26554012	2.45098042
11.26959515	3.05882359
11.26959515	2.84313726
11.27369118	2.62745094
11.27779579	2.84313726
11.28194046	2.94117641
11.28194046	2.47058821
11.28642178	2.98039222
11.29020596	3.39215684
11.29461384	2.88235283
11.29837322	3.13725495
11.30241203	2.92156863
11.30241203	2.90196085
11.30653286	3.47058821
11.31062031	3.58823538
11.31465912	3.09803915
11.31465912	3.13725495
11.31877136	3.33333325
11.32312965	2.66666675
11.32693100	2.82352948
11.32693100	3.11764717
11.33117485	2.56862736
11.33523750	2.11764717
11.33948898	1.98039210
11.34381485	1.35294116
11.34773064	1.74509799
11.34773064	2.05882359
11.35165405	1.43137252
11.35617638	1.43137252
11.36023998	1.64705884
11.36023998	1.39215684
11.36423779	1.41176474
11.36832523	2.00000000
11.37213421	2.15686274
11.37213421	1.76470590
11.37616444	1.90196073
11.38021183	2.25490189
11.38430786	2.09803915
11.38838768	2.64705873
11.39254856	2.35294127
11.39254856	2.19607854
11.39666939	2.45098042
11.40092945	2.56862736
11.40510750	2.15686274
11.40510750	2.72549009
11.40949821	3.13725495
11.41324139	2.54901958
11.41741943	2.62745094
11.41741943	2.82352948
11.42159748	2.49019599
11.42560387	2.45098042
11.42560387	3.00000000
11.42972374	3.03921580
11.43373871	2.52941179
11.43785095	2.62745094
11.43785095	2.90196085
11.44185638	2.29411769
11.44598484	2.58823538
11.45006466	3.01960778
11.45006466	2.58823538
11.45405483	2.33333325
11.45801926	2.39215684
11.46213150	2.31372547
11.46213150	1.80392158
11.46648979	2.19607854
11.47056961	2.47058821
11.47056961	1.80392158
11.47467327	1.78431368
11.47866344	1.98039210
11.48286533	1.64705884
11.48286533	1.68627453
11.48755169	2.27450991
11.49158192	2.37254906
11.49521923	2.00000000
11.49521923	2.15686274
11.49904442	2.54901958
11.50308323	2.07843137
11.50745010	2.54901958
11.50745010	3.15686274
11.51151276	2.86274505
11.51552677	2.80392146
11.51552677	3.07843137
11.51972103	3.09803915
11.52362061	2.70588231
11.52824974	3.23529410
11.52824974	3.54901958
11.53318882	2.92156863
11.53738308	2.90196085
11.54087353	3.05882359
11.54087353	2.62745094
11.54459286	2.56862736
11.54910660	3.01960778
11.55248165	2.94117641
11.55248165	2.41176462
11.55670834	2.41176462
11.56052589	2.66666675
11.56052589	2.03921580
11.56457233	2.45098042
11.56858635	2.94117641
11.57274055	2.52941179
11.57274055	2.45098042
11.57705688	2.70588231
11.58095646	2.64705873
11.58526611	2.29411769
11.58526611	2.80392146
11.58909988	3.11764717
11.59339237	2.47058821
11.59755325	2.54901958
11.59755325	2.74509811
11.60163307	2.35294127
11.60593414	2.41176462
11.60593414	2.96078420
11.60973549	2.90196085
11.61387253	2.47058821
11.61819744	2.56862736
11.61819744	2.76470590
11.62197399	2.11764717
11.62602043	2.49019599
11.63010025	2.90196085
11.63010025	2.41176462
11.63418007	2.29411769
11.63851357	2.47058821
11.64250278	2.05882359
11.64655781	2.60784316
11.65081787	2.88235283
11.65081787	2.23529410
11.65509415	2.21568632
11.66023064	2.37254906
11.66298294	1.82352936
11.66298294	1.80392158
11.66753769	2.23529410
11.67147827	2.05882359
11.67552471	1.60784316
11.67552471	1.68627453
11.67933464	1.98039210
11.68385601	1.43137252
11.68749332	2.52941179
11.69154835	2.23529410
11.69562817	2.31372547
11.69562817	2.68627453
11.69973278	2.72549009
11.70379543	2.54901958
11.70791626	3.19607854
11.70791626	3.49019599
11.71200371	2.90196085
11.71614075	2.94117641
11.72025299	3.13725495
11.72025299	2.62745094
11.72433281	2.64705873
11.72842884	3.11764717
11.73258209	2.47058821
11.73661327	2.54901958
11.74076653	2.72549009
11.74076653	2.11764717
11.74480534	2.49019599
11.74896622	2.88235283
11.75302982	2.29411769
11.75302982	2.15686274
11.75713348	2.27450991
11.76116467	2.05882359
11.76531792	1.70588231
11.76531792	2.19607854
11.76934814	2.43137264
11.77351761	1.82352936
11.77784348	2.23529410
11.78239822	1.86274505
11.78704262	2.09803915
11.78704262	2.74509811
11.78989410	2.70588231
11.79484177	2.41176462
11.79817581	2.62745094
11.79817581	2.92156863
11.80248451	2.41176462
11.80662155	3.00000000
11.81042290	3.56862736
11.81042290	3.15686274
11.81442070	3.23529410
11.81852436	3.50980401
11.82289886	3.05882359
11.82694626	3.47058821
11.83089447	3.52941179
11.83089447	2.74509811
11.83514595	2.58823538
11.83925056	2.64705873
11.84466553	1.98039210
11.84466553	2.03921580
11.84754848	2.41176462
11.85163689	2.15686274
11.85601139	1.78431368
11.85601139	1.88235295
11.85972214	2.07843137
11.86369514	1.54901958
11.86801243	2.52941179
11.87190342	2.07843137
11.87595844	2.09803915
11.87595844	2.37254906
11.88001347	2.27450991
11.88407707	2.21568632
11.88840199	2.90196085
11.88840199	3.27450991
11.89242458	2.90196085
11.89638138	3.19607854
11.90071487	3.58823538
11.90071487	3.21568632
11.90454865	3.49019599
11.90895653	4.00000000
11.91285515	3.19607854
11.91692734	3.09803915
11.92242336	3.00000000
11.92242336	2.15686274
11.92551231	2.35294127
11.92941189	2.52941179
11.93377781	1.76470590
11.93377781	1.58823526
11.93736649	1.66666663
11.94140434	1.35294116
11.94552517	1.13725495
11.94552517	1.66666663
11.94965363	1.84313726
11.95370865	1.35294116
11.95370865	1.49019611
11.95789528	1.84313726
11.96188450	1.45098042
11.96628380	1.80392158
11.96628380	2.47058821
11.97038841	2.35294127
11.97567177	2.21568632
11.97895718	2.49019599
11.97895718	2.72549009
11.98283195	2.25490189
11.98664093	2.84313726
11.99102402	3.27450991
11.99102402	2.72549009
11.99542236	2.80392146
11.99887180	2.96078420
11.99887180	2.66666675
12.00289345	2.45098042
12.00694084	2.86274505
12.01129913	2.86274505
12.01129913	2.19607854
12.01545238	2.19607854
12.01946640	2.35294127
12.02340698	1.80392158
12.02340698	2.07843137
12.02740383	2.52941179
12.03154945	2.27450991
12.03630924	2.00000000
12.03630924	2.19607854
12.04098701	2.37254906
12.04451752	1.84313726
12.04451752	2.37254906
12.04850674	2.82352948
12.05261135	2.29411769
12.05633831	2.35294127
12.05633831	2.54901958
12.06027031	2.35294127
12.06430149	2.33333325
12.06840515	2.88235283
12.06840515	3.03921580
12.07273102	2.52941179
12.07678604	2.62745094
12.08079147	2.96078420
12.08079147	2.47058821
12.08478928	2.84313726
12.08911419	3.45098042
12.08911419	3.21568632
12.09447193	3.05882359
12.09730625	3.21568632
12.10276222	3.23529410
12.10276222	2.64705873
12.10554790	2.96078420
12.10943890	3.15686274
12.11352634	2.35294127
12.11352634	2.15686274
12.11826992	2.15686274
12.12190723	1.72549021
12.12586403	1.58823526
12.12586403	2.09803915
12.12983704	2.19607854
12.13395786	1.74509799
12.13395786	1.90196073
12.13802052	2.29411769
12.14212513	1.80392158
12.14623737	2.21568632
12.14623737	2.80392146
12.15039921	2.56862736
12.15543747	2.43137264
12.15886116	2.66666675
12.15886116	2.78431368
12.16295719	2.33333325
12.16816711	2.86274505
12.17211628	2.56862736
12.17550755	2.56862736
12.17952156	2.70588231
12.17952156	2.37254906
12.18379784	2.27450991
12.18747616	2.82352948
12.19151497	2.90196085
12.19151497	2.45098042
12.19557762	2.52941179
12.19968224	2.82352948
12.20375347	2.23529410
12.20375347	2.54901958
12.20780849	2.98039222
12.21178150	2.52941179
12.21614838	2.31372547
12.22003937	2.21568632
12.22429085	1.68627453
12.22429085	2.13725495
12.22839546	2.41176462
12.23253155	1.78431368
12.23659515	1.80392158
12.23659515	2.03921580
12.24122334	1.72549021
12.24567223	1.78431368
12.24875259	2.41176462
12.24875259	2.52941179
12.25277424	2.13725495
12.25682926	2.31372547
12.26117134	2.17647052
12.26520157	2.60784316
12.26934719	3.19607854
12.26934719	2.90196085
12.27333641	2.82352948
12.27740002	3.11764717
12.28143787	3.21568632
12.28143787	2.88235283
12.28552628	3.47058821
12.28983498	3.88235283
12.29374218	3.33333325
12.29374218	3.35294127
12.29809284	3.58823538
12.30206585	3.25490189
12.30662060	3.68627453
12.31024933	3.62745094
12.31418133	3.09803915
12.31418133	3.05882359
12.31830215	3.15686274
12.32256222	2.45098042
12.32671547	2.68627453
12.32671547	3.00000000
12.33076191	2.47058821
12.33489132	2.23529410
12.33900356	2.29411769
12.33900356	2.17647052
12.34299278	1.68627453
12.34707260	2.13725495
12.35147190	1.80392158
12.35628891	1.84313726
12.35966396	2.07843137
12.35966396	1.72549021
12.36372662	1.80392158
12.36779785	2.39215684
12.37163258	2.45098042
12.37163258	2.05882359
12.37567902	2.23529410
12.37978363	2.56862736
12.38383007	2.05882359
12.38383007	2.49019599
12.38790989	2.98039222
12.39226818	2.58823538
12.39614296	2.66666675
12.40049267	2.58823538
12.40586662	2.23529410
12.40586662	2.78431368
12.40994644	3.05882359
12.41255093	2.47058821
12.41718769	2.49019599
12.41718769	2.66666675
12.42212772	2.25490189
12.42595291	2.23529410
12.42964745	2.70588231
12.42964745	2.54901958
12.43305588	2.01960778
12.43713570	2.01960778
12.44111633	1.45098042
12.44550800	1.76470590
12.44962788	2.15686274
12.44962788	1.66666663
12.45347023	1.56862748
12.45763969	1.76470590
12.46166229	1.72549021
12.46166229	1.45098042
12.46650410	2.05882359
12.47100067	2.45098042
12.47430229	1.92156863
12.47430229	2.03921580
12.47899628	2.37254906
12.48274803	2.01960778
12.48274803	2.21568632
12.48691845	2.84313726
12.49098969	2.86274505
12.49477386	2.58823538
12.49477386	2.80392146
12.49883747	3.13725495
12.50281906	2.66666675
12.50694752	3.11764717
12.50694752	3.58823538
12.51098633	3.09803915
12.51503277	2.98039222
12.51906395	3.13725495
12.51906395	2.94117641
12.52306938	2.52941179
12.52746010	3.00000000
12.52746010	3.13725495
12.53150749	2.43137264
12.53561974	2.39215684
12.53948593	2.49019599
12.53948593	1.94117641
12.54517937	1.94117641
12.54798985	2.33333325
12.55190563	2.09803915
12.55190563	1.58823526
12.55682850	1.56862748
12.56031799	1.68627453
12.56409454	1.00000000
12.56409454	1.35294116
12.56814194	1.76470590
12.57249165	1.27450979
12.57249165	1.29411769
12.57653904	1.64705884
12.58070850	1.70588231
12.58462429	1.70588231
12.58462429	2.50980401
12.58904743	3.01960778
12.59329128	2.64705873
12.59696960	2.90196085
12.59696960	3.31372547
12.60156536	2.98039222
12.60538292	3.17647052
12.60958481	3.76470590
12.60958481	3.62745094
12.61372185	3.27450991
12.61767864	3.31372547
12.61767864	3.43137264
12.62152100	2.66666675
12.62557602	2.96078420
12.62959003	3.25490189
12.62959003	2.56862736
12.63366985	2.37254906
12.63801098	2.39215684
12.64214039	2.09803915
12.64214039	1.70588231
12.64596558	2.09803915
12.65035629	2.15686274
12.65479660	1.49019611
12.65479660	1.47058821
12.65840149	1.68627453
12.66269398	1.19607842
12.66269398	1.45098042
12.66692066	2.07843137
12.67124653	1.98039210
12.67472839	1.82352936
12.67472839	2.15686274
12.67880726	2.52941179
12.68283844	2.15686274
12.68695831	2.80392146
12.68695831	3.41176462
12.69098949	3.03921580
12.69508553	3.13725495
12.69923878	3.33333325
12.70328522	3.19607854
12.70737267	3.76470590
12.70737267	3.92156863
12.71147728	3.31372547
12.71608925	3.25490189
12.72034931	3.35294127
12.72034931	2.66666675
12.72448635	2.64705873
12.72811508	3.00000000
12.73244095	2.52941179
12.73244095	2.09803915
12.73647881	2.13725495
12.74032974	2.17647052
12.74490070	2.09803915
12.74844742	2.54901958
12.75250244	2.03921580
12.75250244	2.09803915
12.75668907	2.35294127
12.76090813	2.19607854
12.76504517	2.05882359
12.76504517	2.64705873
12.76910782	2.80392146
12.77319622	2.29411769
12.77755356	2.31372547
12.77755356	2.56862736
12.78140450	2.09803915
12.78660583	2.27450991
12.78940773	2.56862736
12.79358578	2.27450991
12.79768181	2.45098042
12.79768181	2.62745094
12.80222034	2.05882359
12.80593109	2.56862736
12.80992889	2.98039222
12.80992889	2.43137264
12.81397533	2.45098042
12.81802273	2.70588231
12.82214260	2.50980401
12.82214260	2.43137264
12.82645988	3.09803915
12.83040905	3.31372547
12.83466816	3.03921580
12.83874035	3.39215684
12.84313107	2.92156863
12.84313107	3.25490189
12.84707928	3.80392146
12.85241222	3.52941179
12.85599232	3.27450991
12.85599232	3.33333325
12.85926056	3.37254906
12.86329937	2.72549009
12.86783791	3.01960778
12.86783791	3.23529410
12.87192535	2.50980401
12.87560368	2.29411769
12.87965870	1.86274505
12.88382912	1.58823526
12.88769531	1.98039210
12.88769531	1.98039210
12.89178276	1.41176474
12.89583778	1.47058821
12.90004921	1.80392158
12.90004921	1.31372547
12.90404701	1.72549021
12.90814304	2.39215684
12.91229630	2.25490189
12.91229630	2.19607854
12.91635132	2.54901958
12.92041397	2.74509811
12.92448521	2.90196085
12.92863941	3.33333325
12.93338203	2.74509811
12.93338203	2.72549009
12.93688011	2.88235283
12.94090271	2.58823538
12.94532585	2.47058821
12.94532585	2.96078420
12.94940567	3.01960778
12.95328045	2.45098042
12.95744228	2.49019599
12.95744228	2.70588231
12.96138287	2.09803915
12.96556854	2.35294127
12.96967316	2.39215684
12.97417831	2.15686274
12.97841358	2.35294127
12.97841358	2.41176462
12.98241138	2.01960778
12.98607349	2.58823538
12.99058723	3.03921580
12.99058723	2.52941179
12.99465847	2.64705873
12.99832821	2.90196085
13.00241566	2.64705873
13.00241566	2.64705873
13.00644684	3.17647052
13.01079655	3.17647052
13.01079655	2.64705873
13.01484299	2.56862736
13.01878357	2.70588231
13.02285480	1.96078432
13.02285480	2.09803915
13.02718830	2.45098042
13.03144073	1.92156863
13.03518391	1.66666663
13.03518391	1.80392158
13.03926373	1.84313726
13.04349041	1.50980389
13.04772568	2.15686274
13.04772568	2.62745094
13.05201912	2.15686274
13.05588531	2.29411769
13.05588531	2.62745094
13.05998135	2.37254906
13.06406116	2.41176462
13.06808281	3.00000000
13.06808281	3.07843137
13.07214642	2.62745094
13.07621002	2.76470590
13.08034706	3.03921580
13.08034706	2.50980401
13.08432770	2.88235283
13.08849812	3.37254906
13.09274960	3.00000000
13.09274960	2.82352948
13.09659958	2.98039222
13.10094929	2.94117641
13.10094929	2.47058821
13.10503769	2.96078420
13.10912514	3.29411769
13.11297512	2.64705873
13.11297512	2.64705873
13.11710453	2.78431368
13.12137222	2.33333325
13.12543583	2.19607854
13.12543583	2.56862736
13.12959671	2.41176462
13.13366795	1.78431368
13.13773155	1.70588231
13.13773155	1.84313726
13.14179516	1.19607842
13.14586639	1.47058821
13.14586639	1.90196073
13.14983082	1.50980389
13.15391922	1.39215684
13.15829372	1.62745094
13.15829372	1.68627453
13.16220093	1.33333337
13.16648579	1.96078432
13.17063046	2.35294127
13.17063046	1.84313726
13.17499733	2.01960778
13.17887974	2.37254906
13.18315601	2.37254906
13.18692493	3.07843137
13.19099617	3.19607854
13.19099617	2.90196085
13.19506741	3.11764717
13.19915485	3.47058821
13.20323467	2.94117641
13.20323467	3.27450991
13.20728207	3.66666675
13.21132851	3.11764717
13.21541595	2.82352948
13.21541595	2.86274505
13.21944714	2.62745094
13.22354317	2.07843137
13.22764683	2.62745094
13.23180866	1.88235295
13.23587990	1.86274505
13.23587990	2.00000000
13.23992634	1.58823526
13.24405575	1.66666663
13.24816799	2.25490189
13.24816799	2.19607854
13.25227165	1.84313726
13.25635147	1.94117641
13.26048088	2.25490189
13.26048088	1.70588231
13.26457691	2.15686274
13.26863956	2.68627453
13.27279282	2.37254906
13.27683163	2.64705873
13.28114033	2.66666675
13.28114033	2.37254906
13.28503227	2.90196085
13.28911972	3.15686274
13.29324055	2.52941179
13.29324055	2.50980401
13.29736900	2.74509811
13.30143261	2.33333325
13.30553627	2.50980401
13.30553627	3.13725495
13.30960751	3.17647052
13.31372833	2.90196085
13.31779194	3.41176462
13.32189560	2.82352948
13.32628727	3.21568632
13.32628727	3.56862736
13.33018589	3.00000000
13.33445454	2.78431368
13.33851719	2.86274505
13.33851719	2.64705873
13.34262180	2.25490189
13.34671783	2.72549009
13.35169029	2.96078420
13.35169029	2.37254906
13.35542583	2.41176462
13.35909557	2.66666675
13.36314297	2.39215684
13.36724663	2.90196085
13.37139988	2.72549009
13.37139988	2.31372547
13.37539005	2.39215684
13.37937069	2.52941179
13.38354111	1.88235295
13.38354111	2.27450991
13.38755512	2.68627453
13.39169216	2.13725495
13.39578819	2.03921580
13.39578819	2.21568632
13.39972782	2.09803915
13.40382385	1.84313726
13.40814114	2.74509811
13.41222095	2.25490189
13.41623497	2.41176462
13.41623497	2.72549009
13.42027378	2.29411769
13.42585278	2.45098042
13.42853165	2.94117641
13.42853165	2.76470590
13.43274212	2.35294127
13.43663311	2.45098042
13.44067955	2.60784316
13.44067955	2.00000000
13.44477558	2.45098042
13.44915009	2.88235283
13.45296764	2.29411769
13.45729351	2.50980401
13.46131516	2.33333325
13.46131516	2.07843137
13.46530533	2.64705873
13.47083473	2.86274505
13.47487354	2.27450991
13.47487354	2.33333325
13.47807598	2.58823538
13.48273754	2.09803915
13.48628521	2.31372547
13.48628521	2.82352948
13.49018383	2.62745094
13.49402618	2.27450991
13.49402618	2.37254906
13.49811363	2.49019599
13.50216866	1.84313726
13.50622368	2.21568632
13.50622368	2.52941179
13.51029587	1.90196073
13.51446533	1.78431368
13.51874924	1.94117641
13.51874924	1.66666663
13.52284527	1.49019611
13.52689266	2.01960778
13.53114414	2.25490189
13.53114414	1.74509799
13.53499413	1.88235295
13.54026985	2.25490189
13.54026985	1.82352936
13.54407120	2.07843137
13.54727459	2.66666675
13.55173874	2.50980401
13.55173874	2.23529410
13.55581856	2.41176462
13.55954552	2.60784316
13.56362534	2.07843137
13.56362534	2.56862736
13.56770515	2.98039222
13.57178497	2.43137264
13.57610226	2.39215684
13.57610226	2.60784316
13.57994366	2.41176462
13.58429432	2.25490189
13.58429432	2.84313726
13.58834934	3.05882359
13.59242058	2.56862736
13.59654903	2.68627453
13.59654903	3.01960778
13.60181618	2.54901958
13.60495377	2.78431368
13.60915661	3.27450991
13.60915661	2.98039222
13.61318684	2.58823538
13.61729145	2.60784316
13.62116623	2.60784316
13.62116623	1.92156863
13.62524605	2.29411769
13.62927628	2.58823538
13.62927628	1.96078432
13.63342094	1.90196073
13.63745975	2.07843137
13.64158916	1.86274505
13.64158916	1.72549021
13.64565182	2.33333325
13.64960861	2.56862736
13.65393448	2.09803915
13.65393448	2.25490189
13.65802193	2.62745094
13.66189671	2.17647052
13.66612339	2.50980401
13.66612339	3.11764717
13.67029381	2.88235283
13.67503643	2.68627453
13.67503643	2.84313726
13.67923927	2.98039222
13.68263912	2.49019599
13.68651390	2.96078420
13.68651390	3.35294127
13.69054413	2.80392146
13.69464874	2.78431368
13.69896507	2.96078420
13.69896507	2.66666675
13.70303726	2.52941179
13.70716572	3.00000000
13.71122074	2.37254906
13.71571827	2.31372547
13.72070694	2.43137264
13.72070694	1.76470590
13.72471333	1.96078432
13.72857952	2.45098042
13.73202038	2.21568632
13.73202038	2.05882359
13.73595238	2.41176462
13.74008083	2.64705873
13.74418545	2.31372547
13.74418545	2.92156863
13.74801922	3.47058821
13.75207424	2.96078420
13.75610447	3.29411769
13.76043034	3.07843137
13.76438713	3.03921580
13.76438713	3.58823538
13.76836777	3.72549009
13.77271843	3.21568632
13.77658463	3.27450991
13.77658463	3.52941179
13.78074646	2.88235283
13.78621864	3.11764717
13.78967571	3.52941179
13.78967571	3.07843137
13.79367352	2.78431368
13.79715443	2.86274505
13.80123425	2.27450991
13.80564213	2.70588231
13.80943489	3.01960778
13.80943489	2.37254906
13.81342411	2.39215684
13.81753635	2.56862736
13.82187843	2.27450991
13.82187843	2.25490189
13.82601547	2.86274505
13.82981586	3.00000000
13.83419895	2.58823538
13.83419895	2.68627453
13.83799171	3.01960778
13.84239101	2.45098042
13.84675694	3.27450991
13.85171318	2.94117641
13.85456467	2.74509811
13.85456467	2.94117641
13.85921764	2.98039222
13.86323929	2.50980401
13.86687660	3.03921580
13.86687660	3.37254906
13.87088299	2.72549009
13.87492943	2.70588231
13.87898445	2.86274505
13.87898445	2.45098042
13.88307285	2.33333325
13.88743019	2.78431368
13.89151859	2.11764717
13.89558983	2.11764717
13.89971828	2.29411769
13.89971828	1.62745094
13.90356064	1.90196073
13.90772247	2.31372547
13.91179371	1.88235295
13.91179371	1.66666663
13.91583252	1.84313726
13.91988754	1.84313726
13.92412281	1.47058821
13.92412281	2.01960778
13.92896366	2.41176462
13.93277359	1.88235295
13.93641853	2.17647052
13.94044113	1.84313726
13.94452858	1.88235295
13.94452858	2.41176462
13.94887924	2.47058821
13.95269585	2.03921580
13.95686626	2.15686274
13.95686626	2.45098042
13.96115017	1.96078432
13.96519756	2.37254906
13.96917820	2.88235283
13.96917820	2.54901958
13.97445393	2.39215684
13.97784615	2.60784316
13.98167133	2.15686274
13.98657799	2.62745094
13.98982239	2.92156863
13.98982239	2.19607854
13.99426270	2.15686274
13.99803066	2.25490189
14.00190544	1.78431368
14.00190544	1.78431368
14.00595284	2.31372547
14.01006508	2.29411769
14.01422596	1.90196073
14.01422596	2.07843137
14.01828957	2.39215684
14.02235317	1.88235295
14.02235317	2.33333325
14.02670288	2.86274505
14.03062725	2.41176462
14.03620529	2.29411769
14.03620529	2.43137264
14.03884315	2.31372547
14.04289055	1.86274505
14.04694557	2.33333325
14.04694557	2.62745094
14.05103302	2.01960778
14.05512905	2.07843137
14.05926609	2.31372547
14.05926609	1.98039210
14.06332111	2.09803915
14.06744957	2.66666675
14.06744957	2.66666675
14.07152081	2.27450991
14.07559299	2.41176462
14.07972145	2.70588231
14.07972145	2.09803915
14.08383369	2.50980401
14.08786392	2.96078420
14.09205818	2.49019599
14.09205818	2.39215684
14.09676075	2.54901958
14.10070896	2.43137264
14.10478878	2.07843137
14.10478878	2.56862736
14.10864735	2.86274505
14.11261272	2.29411769
14.11261272	2.39215684
14.11705208	2.66666675
14.12073040	2.35294127
14.12482643	2.54901958
14.12482643	3.15686274
14.12884903	3.15686274
14.13299370	2.82352948
14.13719654	2.98039222
14.13719654	3.21568632
14.14123535	2.60784316
14.14551926	2.96078420
14.14943504	3.29411769
14.14943504	2.68627453
14.15390015	2.43137264
14.15806198	2.49019599
14.15806198	2.23529410
14.16182995	1.78431368
14.16593361	2.25490189
14.17048836	2.47058821
14.17048836	1.78431368
14.17477322	1.82352936
14.17831230	2.07843137
14.18278503	1.64705884
14.18278503	1.76470590
14.18649578	2.29411769
14.19053459	2.25490189
14.19460583	1.90196073
14.19460583	2.05882359
14.19866085	2.33333325
14.20281410	1.80392158
14.20281410	2.33333325
14.20686150	2.80392146
14.21083450	2.43137264
14.21490574	2.49019599
14.21490574	2.82352948
14.21922302	2.84313726
14.22331047	2.68627453
14.22739029	3.39215684
14.22739029	3.74509811
14.23128986	3.19607854
14.23559856	3.31372547
14.23982620	3.00000000
14.24414349	3.07843137
14.24779701	3.52941179
14.24779701	3.25490189
14.25177002	2.80392146
14.25582504	2.78431368
14.26019955	2.80392146
14.26019955	2.07843137
14.26404953	2.33333325
14.26809692	2.56862736
14.27218437	1.94117641
14.27218437	1.72549021
14.27633762	1.78431368
14.28044224	1.50980389
14.28457928	1.72549021
14.28860950	1.94117641
14.29340172	1.35294116
14.29340172	1.45098042
14.29708004	1.76470590
14.30147934	1.33333337
14.30558300	1.54901958
14.30558300	2.17647052
14.30964661	2.07843137
14.31320953	1.86274505
14.31731415	2.13725495
14.31731415	2.50980401
14.32141781	2.11764717
14.32571888	2.82352948
14.32975769	3.11764717
14.33394337	3.27450991
14.33801556	3.56862736
14.33801556	3.49019599
14.34231567	3.29411769
14.34652710	3.90196085
14.35058975	4.01960802
14.35058975	3.37254906
14.35430908	3.35294127
14.35862637	3.45098042
14.36286163	2.76470590
14.36286163	2.72549009
14.36686707	3.03921580
14.37066841	2.56862736
14.37469101	1.96078432
14.37877846	1.92156863
14.38286686	1.19607842
14.38286686	1.50980389
14.38717556	1.78431368
14.39126301	1.17647064
14.39537525	1.03921568
14.39537525	1.21568632
14.39954567	1.03921568
14.40411663	0.90196079
14.40758991	1.54901958
14.40758991	1.84313726
14.41222668	1.47058821
14.41605186	1.68627453
14.41977978	1.84313726
14.42418671	2.25490189
14.42852020	2.98039222
14.42852020	2.90196085
14.43237877	2.80392146
14.43613911	3.11764717
14.44021034	3.43137264
14.44021034	3.05882359
14.44429779	3.66666675
14.44855022	4.19607830
14.45272827	3.70588231
14.45272827	3.68627453
14.45656967	3.90196085
14.46066570	3.64705873
14.46504879	3.90196085
14.46948051	3.94117641
14.47437096	3.23529410
14.47437096	3.07843137
14.47808170	3.07843137
14.48138332	2.27450991
14.48578262	2.23529410
14.48578262	2.50980401
14.48985386	2.03921580
14.49380207	1.56862748
14.49762821	1.56862748
14.49762821	1.54901958
14.50169182	0.88235295
14.50577068	1.25490201
14.50979328	0.96078432
14.51393032	0.94117647
14.51828861	1.21568632
14.51828861	1.07843137
14.52233505	1.11764705
14.52640629	1.94117641
14.53032207	2.31372547
14.53032207	2.07843137
14.53486919	2.49019599
14.53998852	3.01960778
14.54279900	2.74509811
14.54279900	3.25490189
14.54692745	3.96078420
14.55124474	3.82352948
14.55124474	3.70588231
14.55523396	3.96078420
14.55906773	4.07843161
14.56309032	3.58823538
14.56309032	4.05882359
14.56716156	4.37254906
14.57126617	3.70588231
14.57540321	3.64705873
14.57540321	3.72549009
14.57945824	3.33333325
14.58360291	3.13725495
14.58766651	3.56862736
14.58766651	3.54901958
14.59179497	2.96078420
14.59637451	2.88235283
14.59637451	3.01960778
14.60047913	2.33333325
14.60470581	2.43137264
14.60817909	2.76470590
14.60817909	2.23529410
14.61223412	1.86274505
14.61630535	1.92156863
14.62044239	1.88235295
14.62044239	1.33333337
14.62451363	1.84313726
14.62862682	2.23529410
14.63279629	1.68627453
14.63279629	1.76470590
14.63708019	2.07843137
14.64091396	1.84313726
14.64091396	1.88235295
14.64501858	2.54901958
14.64944267	2.70588231
14.65333366	2.25490189
14.65333366	2.37254906
14.65744591	2.70588231
14.66202545	2.19607854
14.66561317	2.54901958
14.66561317	3.13725495
14.67016792	2.84313726
14.67414093	2.72549009
14.67839241	2.96078420
14.67839241	3.05882359
14.68238258	2.58823538
14.68605232	3.05882359
14.68605232	3.41176462
14.69004154	2.78431368
14.69414616	2.74509811
14.69832420	2.92156863
14.69832420	2.54901958
14.70245266	2.45098042
14.70665550	2.90196085
14.71080017	2.90196085
14.71080017	2.35294127
14.71479034	2.39215684
14.71940994	2.64705873
14.72299862	2.03921580
14.72299862	2.35294127
14.72700405	2.80392146
14.73119068	2.39215684
14.73119068	2.15686274
14.73553181	2.25490189
14.73957920	2.13725495
14.74351120	1.60784316
14.74351120	2.00000000
14.74747562	2.25490189
14.75156403	1.58823526
14.75560284	1.54901958
14.75560284	1.70588231
14.75992775	1.39215684
14.76378632	1.37254906
14.76815224	2.00000000
14.77219963	1.62745094
14.77630329	1.76470590
14.77630329	2.13725495
14.78033447	1.66666663
14.78432369	2.11764717
14.78879642	2.70588231
14.78879642	2.41176462
14.79249954	2.37254906
14.79669380	2.64705873
14.80101109	2.70588231
14.80101109	2.39215684
14.80521297	2.94117641
14.80896473	3.27450991
14.81297874	2.68627453
14.81712437	2.82352948
14.82117081	2.43137264
14.82117081	2.39215684
14.82527542	2.86274505
14.82931423	2.76470590
14.83371353	2.23529410
14.83371353	2.19607854
14.83755493	2.37254906
14.84214306	1.70588231
14.84641075	1.98039210
14.84641075	2.41176462
14.85123539	1.98039210
14.85537243	1.86274505
14.85853481	2.09803915
14.86284351	1.78431368
14.86641598	2.41176462
14.86641598	2.78431368
14.87078190	2.21568632
14.87442780	2.29411769
14.87854004	2.56862736
14.87854004	2.21568632
14.88260269	2.29411769
14.88682175	2.88235283
14.89101601	2.88235283
14.89101601	2.50980401
14.89509583	2.62745094
14.89904404	2.92156863
14.90305042	2.82352948
14.90714645	3.35294127
14.91129112	2.98039222
14.91129112	2.90196085
14.91537952	3.13725495
14.91947556	3.09803915
14.92357922	2.74509811
14.92357922	3.25490189
14.92765903	3.50980401
14.93177128	2.84313726
14.93586731	2.78431368
14.93586731	2.90196085
14.93990612	2.35294127
14.94400978	2.31372547
14.94815540	2.54901958
14.95217800	2.03921580
14.95629787	2.11764717
14.95629787	2.29411769
14.96063995	1.66666663
14.96464634	2.01960778
14.96864319	2.47058821
14.96864319	2.00000000
14.97269821	1.88235295
14.97682762	2.09803915
14.98093128	2.00000000
14.98093128	1.72549021
14.98501110	2.29411769
14.98920536	2.64705873
14.99323559	2.25490189
14.99723339	2.56862736
15.00136280	2.23529410
15.00136280	2.43137264
15.00548267	3.05882359
15.00953770	3.01960778
15.01363373	2.60784316
15.01363373	2.76470590
15.01778698	3.00000000
15.02184200	2.37254906
15.02627468	2.74509811
15.02627468	3.17647052
15.03046036	2.64705873
15.03422832	2.52941179
15.03824234	2.52941179
15.04247761	2.17647052
15.04652500	2.68627453
15.04652500	2.88235283
15.05056381	2.21568632
15.05471706	2.19607854
15.05877972	2.37254906
15.05877972	1.84313726
15.06283474	1.90196073
15.06689835	2.37254906
15.07105160	2.19607854
15.07105160	1.80392158
15.07511520	1.92156863
15.07924366	2.15686274
15.07924366	1.58823526
15.08335590	2.03921580
15.08746052	2.54901958
15.09162235	2.09803915
15.09162235	2.07843137
15.09590626	2.37254906
15.09971523	2.35294127
15.10391808	2.19607854
15.10391808	2.90196085
15.10838318	3.29411769
15.11205292	2.84313726
15.11611557	3.01960778
15.11611557	3.33333325
15.12020397	2.90196085
15.12432480	3.03921580
15.12432480	3.50980401
15.12848568	3.27450991
15.13248348	2.84313726
15.13654709	2.88235283
15.13654709	2.98039222
15.14064312	2.35294127
15.14477158	2.68627453
15.14890862	3.01960778
15.14890862	2.43137264
15.15292263	2.29411769
15.15966511	2.45098042
15.16497326	2.17647052
15.16497326	1.90196073
15.16524315	2.43137264
15.17004395	2.60784316
15.17004395	2.01960778
15.17459011	2.09803915
15.17905521	2.35294127
15.18183231	1.90196073
15.18183231	2.11764717
15.18572330	2.64705873
15.18981075	2.49019599
15.19389057	2.15686274
15.19389057	2.35294127
15.19800282	2.52941179
15.20206642	2.00000000
15.20625210	2.47058821
15.20625210	2.94117641
15.21022606	2.41176462
15.21456718	2.41176462
15.21456718	2.62745094
15.21847534	2.45098042
15.22257900	2.27450991
15.22667503	2.82352948
15.22667503	2.98039222
15.23077106	2.35294127
15.23490810	2.37254906
15.23897934	2.56862736
15.23897934	1.96078432
15.24305916	2.13725495
15.24716377	2.60784316
15.25125980	2.37254906
15.25125980	2.05882359
15.25534725	2.27450991
15.25944328	2.43137264
15.25944328	1.96078432
15.26350689	2.52941179
15.26766014	3.01960778
15.27178001	2.52941179
15.27178001	2.58823538
15.27578640	2.88235283
15.28052902	2.74509811
15.28442860	2.62745094
15.28442860	3.27450991
15.28871346	3.47058821
15.29231739	2.96078420
15.29629898	3.35294127
15.30041122	2.80392146
15.30452347	3.00000000
15.30452347	3.50980401
15.30859566	3.21568632
15.31269073	2.90196085
15.31684494	3.01960778
15.31684494	3.09803915
15.32086658	2.50980401
15.32526588	2.98039222
15.32939434	3.35294127
15.32939434	2.76470590
15.33350754	2.74509811
15.33756256	2.94117641
15.34201813	2.56862736
15.34585285	3.09803915
15.34997272	3.17647052
15.34997272	2.54901958
15.35399532	2.52941179
15.35801792	2.72549009
15.36199856	2.05882359
15.36199856	2.23529410
15.36635685	2.66666675
15.37039566	2.29411769
15.37422085	1.94117641
15.37422085	2.05882359
15.37825203	2.09803915
15.38236427	1.54901958
15.38645172	2.47058821
15.39076138	1.90196073
15.39465237	1.94117641
15.39465237	2.15686274
15.39896107	1.92156863
15.40303230	1.86274505
15.40703011	2.49019599
15.40703011	2.64705873
15.41109371	2.19607854
15.41543484	2.37254906
15.41965389	2.70588231
15.41965389	2.23529410
15.42374229	2.56862736
15.42750168	3.15686274
15.43163872	2.64705873
15.43562889	2.80392146
15.43978214	2.84313726
15.43978214	2.29411769
15.44377136	2.70588231
15.44790840	3.01960778
15.45202065	2.33333325
15.45202065	2.27450991
15.45607567	2.41176462
15.46018028	2.05882359
15.46428394	1.96078432
15.46428394	2.50980401
15.46887970	2.56862736
15.47298431	2.07843137
15.47710419	2.39215684
15.48079109	1.78431368
15.48531342	2.07843137
15.48531342	2.54901958
15.48913860	2.17647052
15.49297237	1.94117641
15.49712563	2.09803915
15.49712563	2.11764717
15.50121403	1.58823526
15.50523567	2.07843137
15.50934029	2.43137264
15.50934029	1.80392158
15.51360035	1.78431368
15.51766300	2.01960778
15.52183342	1.70588231
15.52589607	2.31372547
15.52992630	2.41176462
15.52992630	2.01960778
15.53416157	2.15686274
15.53851986	2.54901958
15.54226398	2.05882359
15.54226398	2.49019599
15.54628563	3.09803915
15.55038166	2.84313726
15.55451107	2.74509811
15.55451107	3.03921580
15.55889320	3.13725495
15.56271076	2.72549009
15.56271076	3.29411769
15.56674957	3.64705873
15.57077217	2.98039222
15.57512188	2.98039222
15.57512188	3.07843137
15.57919312	2.62745094
15.58333015	2.45098042
15.58736897	2.84313726
15.58736897	2.66666675
15.59140778	2.07843137
15.59587193	2.00000000
15.59986210	2.13725495
15.59986210	1.41176474
15.60399914	1.66666663
15.60810280	2.07843137
15.60810280	1.64705884
15.61209202	1.47058821
15.61594296	1.74509799
15.62030888	1.82352936
15.62030888	1.56862748
15.62410164	2.25490189
15.62809944	2.82352948
15.63226128	2.41176462
15.63226128	2.62745094
15.63654518	3.01960778
15.64063358	2.82352948
15.64447498	2.98039222
15.64447498	3.64705873
15.64894867	3.68627453
15.65266705	3.29411769
15.65266705	3.39215684
15.65676308	3.62745094
15.66088390	2.98039222
15.66507816	3.31372547
15.66507816	3.72549009
15.66916561	3.19607854
15.67365551	3.01960778
15.67760372	3.15686274
15.67760372	3.00000000
15.68147087	2.54901958
15.68554211	3.00000000
15.68956375	3.25490189
15.68956375	2.52941179
15.69364357	2.50980401
15.69784641	2.62745094
15.69784641	2.13725495
15.70190907	2.09803915
15.70615292	2.54901958
15.71022415	2.43137264
15.71022415	1.94117641
15.71414852	2.00000000
15.71830177	2.23529410
15.72245502	1.68627453
15.72245502	2.09803915
15.72684574	2.62745094
15.73067951	2.19607854
15.73521042	2.09803915
15.73521042	2.31372547
15.73931408	2.21568632
15.74322987	1.82352936
15.74322987	2.33333325
15.74739933	2.60784316
15.75110245	2.01960778
15.75518227	2.05882359
15.75518227	2.31372547
15.75920391	1.94117641
15.76343918	2.05882359
15.76767445	2.58823538
15.76767445	2.56862736
15.77171326	2.15686274
15.77583408	2.23529410
15.77993870	1.88235295
15.78388691	2.27450991
15.78863049	2.76470590
15.78863049	2.31372547
15.79203796	2.23529410
15.79673195	2.45098042
15.80029583	2.39215684
15.80029583	2.07843137
15.80478477	2.64705873
15.80875778	2.92156863
15.81251812	2.35294127
15.81251812	2.43137264
15.81655693	2.68627453
15.82066917	2.27450991
15.82502747	2.94117641
15.82905769	2.80392146
15.83304691	2.33333325
15.83304691	2.41176462
15.83725739	2.56862736
15.84114075	1.84313726
15.84548283	2.17647052
15.84548283	2.49019599
15.84961128	1.90196073
15.85401058	1.70588231
15.85849953	1.84313726
15.85849953	1.76470590
15.86271858	1.47058821
15.86596203	2.09803915
15.87035370	1.96078432
15.87417889	2.15686274
15.87815189	2.54901958
15.87815189	2.25490189
15.88233852	2.54901958
15.88631916	3.23529410
15.89036655	3.25490189
15.89036655	3.03921580
15.89440536	3.23529410
15.89851761	3.50980401
15.90268707	2.94117641
15.90268707	3.29411769
15.90689754	3.58823538
15.91086292	2.96078420
15.91492653	2.58823538
15.91896439	2.17647052
15.92307758	1.64705884
15.92307758	1.94117641
15.92715645	1.98039210
15.93126106	1.23529410
15.93538189	1.23529410
15.93538189	1.45098042
15.93942833	1.01960790
15.94354916	1.31372547
15.94766140	1.98039210
15.94766140	1.98039210
15.95179844	1.84313726
15.95610714	2.17647052
15.95996571	2.11764717
15.96397114	2.76470590
15.96837044	3.33333325
15.96837044	2.96078420
15.97262192	3.01960778
15.97706223	3.35294127
15.98085499	3.25490189
15.98085499	3.05882359
15.98474693	3.62745094
15.98897362	3.82352948
15.99314308	3.19607854
15.99314308	3.13725495
15.99684620	3.31372547
16.00095940	2.68627453
16.00498962	3.07843137
16.00910950	2.80392146
16.01326370	2.33333325
16.01326370	2.35294127
16.01748085	2.47058821
16.02166748	1.82352936
16.02570724	2.27450991
16.02570724	2.66666675
16.03023720	2.09803915
16.03375053	2.01960778
16.03783798	2.21568632
16.03783798	2.00000000
16.04187775	1.78431368
16.04600716	2.37254906
16.05010986	2.09803915
16.05418205	2.23529410
16.05876160	2.58823538
16.05876160	2.17647052
16.06243134	2.43137264
16.06644440	3.03921580
16.07052422	2.90196085
16.07052422	2.66666675
16.07487488	2.88235283
16.07878304	3.13725495
16.08286285	2.64705873
16.08286285	3.17647052
16.08712196	3.66666675
16.09125137	3.13725495
16.09125137	3.21568632
16.09563255	3.35294127
16.09948349	3.21568632
16.10359573	3.00000000
16.10359573	3.54901958
16.10740471	3.66666675
16.11150932	3.05882359
16.11561394	3.07843137
16.11561394	3.25490189
16.11989021	2.68627453
16.12384605	2.84313726
16.12786865	3.31372547
16.12786865	3.00000000
16.13202286	2.66666675
16.13632393	2.76470590
16.13632393	2.82352948
16.14015770	2.21568632
16.14426041	2.58823538
16.14847946	2.92156863
16.14847946	2.23529410
16.15262604	2.05882359
16.15749168	2.13725495
16.16130829	1.70588231
16.16130829	1.39215684
16.16514206	1.78431368
16.16944313	1.76470590
16.17382622	1.07843137
16.17382622	1.05882359
16.17733192	1.29411769
16.18146133	0.78431374
16.18146133	1.15686274
16.18550873	1.80392158
16.18953896	1.74509799
16.19365120	1.70588231
16.19365120	2.11764717
16.19759178	2.43137264
16.20176888	2.13725495
16.20578384	2.84313726
16.20578384	3.39215684
16.20980453	2.98039222
16.21391678	3.07843137
16.21825981	3.33333325
16.21825981	3.07843137
16.22205162	2.96078420
16.22645950	3.49019599
16.22645950	3.56862736
16.23064613	2.98039222
16.23473358	3.00000000
16.23878860	3.21568632
16.23878860	2.56862736
16.24292564	2.72549009
16.24694824	3.07843137
16.25099564	2.62745094
16.25099564	2.25490189
16.25509071	2.27450991
16.25908852	2.21568632
16.26315117	1.62745094
16.26315117	2.01960778
16.26714897	2.33333325
16.27127075	1.68627453
16.27127075	1.62745094
16.27532578	1.84313726
16.27966690	1.56862748
16.28382874	1.54901958
16.28382874	2.19607854
16.28762054	2.33333325
16.29185677	1.90196073
16.29618263	2.01960778
16.29618263	2.33333325
16.30015564	1.80392158
16.30452156	2.15686274
16.30819130	2.45098042
16.31232071	2.29411769
16.31632614	2.56862736
16.31632614	2.66666675
16.32041359	2.23529410
16.32472229	2.76470590
16.32885170	3.15686274
16.32885170	2.56862736
16.33274269	2.60784316
16.33679008	2.86274505
16.34119606	2.60784316
16.34119606	2.56862736
16.34507942	3.13725495
16.34943771	3.17647052
16.35365677	2.58823538
16.35837555	2.76470590
16.36188889	2.07843137
16.36188889	2.27450991
16.36556053	2.64705873
16.36974525	2.15686274
16.37375259	1.84313726
16.37375259	1.94117641
16.37781525	1.90196073
16.38184547	1.39215684
16.38597488	1.90196073
16.38597488	2.31372547
16.39028358	1.76470590
16.39432144	1.92156863
16.39862251	2.13725495
16.40235901	2.27450991
16.40663528	3.00000000
16.40663528	3.19607854
16.41160774	2.84313726
16.41474533	3.00000000
16.41947174	3.33333325
16.41947174	2.76470590
16.42291260	3.11764717
16.42749214	3.58823538
16.43111992	3.15686274
16.43111992	2.92156863
16.43520737	3.01960778
16.43925476	2.92156863
16.44330215	2.70588231
16.44741440	2.92156863
16.45176506	2.15686274
16.45176506	2.07843137
16.45559883	2.19607854
16.45975876	1.80392158
16.46385574	1.74509799
16.46385574	2.27450991
16.46792793	2.27450991
16.47194862	1.76470590
16.47647858	1.82352936
16.47647858	2.05882359
16.48119736	1.45098042
16.48501587	1.78431368
16.48917770	1.86274505
16.49268341	1.78431368
16.49667358	2.05882359
16.49667358	2.15686274
16.50073624	1.86274505
16.50485611	2.52941179
16.50886154	3.03921580
16.50886154	2.56862736
16.51317978	2.70588231
16.51707840	3.01960778
16.52110863	2.74509811
16.52110863	2.80392146
16.52547646	3.39215684
16.52957916	3.41176462
16.53413391	3.07843137
16.53859901	3.33333325
16.54223633	2.74509811
16.54223633	3.09803915
16.54584122	3.54901958
16.55017471	3.07843137
16.55418015	2.92156863
16.55418015	3.05882359
16.55843163	2.96078420
16.56214333	2.52941179
16.56620598	2.98039222
16.56620598	3.21568632
16.57030296	2.52941179
16.57446480	2.49019599
16.57873154	2.09803915
16.58264732	2.01960778
16.58673477	2.49019599
16.58673477	2.31372547
16.59100342	1.80392158
16.59562302	1.84313726
16.59926033	2.03921580
16.59926033	1.41176474
16.60323524	1.78431368
16.60769081	2.21568632
16.61160660	1.78431368
16.61160660	1.72549021
16.61543274	2.00000000
16.61963463	2.01960778
16.61963463	1.82352936
16.62363243	2.50980401
16.62769508	2.92156863
16.63178253	2.43137264
16.63178253	2.52941179
16.63580513	2.82352948
16.63999176	2.47058821
16.64425087	2.56862736
16.64425087	3.13725495
16.64823341	3.13725495
16.65229607	2.76470590
16.65653992	2.90196085
16.65653992	3.17647052
16.66086578	2.60784316
16.66456795	3.01960778
16.66456795	3.45098042
16.66900826	2.96078420
16.67280006	2.84313726
16.67765808	2.98039222
16.67765808	2.78431368
16.68098450	2.35294127
16.68507195	2.80392146
16.68912697	2.94117641
16.68912697	2.23529410
16.69319153	2.15686274
16.69725418	2.29411769
16.70158005	1.84313726
16.70158005	1.92156863
16.70569992	2.47058821
16.70979500	2.41176462
16.70979500	2.07843137
16.71390915	2.23529410
16.71780777	2.50980401
16.72184563	1.94117641
16.72184563	2.39215684
16.72687531	2.82352948
16.73025131	2.33333325
16.73464203	2.25490189
16.73464203	2.43137264
16.73881149	2.33333325
16.74243355	2.07843137
16.74699593	2.64705873
16.74699593	2.96078420
16.75057602	2.41176462
16.75464630	2.47058821
16.75464630	2.74509811
16.75872612	2.23529410
16.76305199	2.35294127
16.76693535	2.86274505
16.76693535	2.62745094
16.77096558	2.23529410
16.77503777	2.33333325
16.77916527	2.52941179
16.77916527	1.92156863
16.78336906	2.41176462
16.78738213	2.90196085
16.79148674	2.43137264
16.79148674	2.45098042
16.79621315	2.70588231
16.80028534	2.62745094
16.80028534	2.41176462
16.80387306	3.03921580
16.80790329	3.27450991
16.81204796	2.70588231
16.81204796	2.76470590
16.81608772	2.92156863
16.82015800	2.41176462
16.82449150	2.49019599
16.82449150	2.94117641
16.82833481	2.68627453
16.83275795	2.29411769
16.83678055	2.56862736
16.84112930	1.98039210
16.84541512	2.43137264
16.84541512	2.90196085
16.84902763	2.39215684
16.85328674	2.37254906
16.85790634	2.60784316
16.85790634	2.47058821
16.86128235	2.31372547
16.86557579	2.94117641
16.86983490	3.19607854
16.86983490	2.68627453
16.87352180	2.80392146
16.87758446	3.11764717
16.88168907	2.88235283
16.88571930	3.45098042
16.89006042	3.29411769
16.89006042	3.00000000
16.89412498	3.15686274
16.89794922	3.33333325
16.90215302	2.70588231
16.90215302	3.09803915
16.90619850	3.41176462
16.91050720	2.70588231
16.91448975	2.50980401
16.91448975	2.50980401
16.91944504	2.07843137
16.92268181	1.70588231
16.92720413	2.13725495
16.93121719	1.52941179
16.93496895	1.56862748
16.93496895	1.86274505
16.93899918	1.47058821
16.94302940	1.82352936
16.94716644	2.50980401
16.94716644	2.45098042
16.95127869	2.31372547
16.95534325	2.60784316
16.95946312	2.88235283
16.95946312	2.43137264
16.96354294	3.00000000
16.96767998	3.50980401
16.97176743	3.05882359
16.97651863	3.27450991
16.98081207	3.03921580
16.98081207	2.86274505
16.98495674	3.35294127
16.98903656	3.43137264
16.99268150	2.78431368
16.99268150	2.74509811
16.99640083	2.88235283
17.00044823	2.17647052
17.00451088	2.25490189
17.00451088	2.62745094
17.00859070	2.23529410
17.01293182	1.82352936
17.01706123	1.96078432
17.02094460	1.37254906
17.02503204	1.86274505
17.02503204	2.29411769
17.02943993	1.74509799
17.03363419	1.74509799
17.03808212	2.00000000
17.03808212	1.80392158
17.04146576	1.74509799
17.04597855	2.35294127
17.04996109	2.58823538
17.04996109	2.15686274
17.05372810	2.35294127
17.05784035	2.76470590
17.06195259	2.74509811
17.06600952	3.37254906
17.07005501	3.15686274
17.07005501	2.94117641
17.07438087	3.13725495
17.07846832	3.23529410
17.08244133	2.70588231
17.08244133	3.13725495
17.08648872	3.45098042
17.09051132	2.80392146
17.09572029	2.68627453
17.09572029	2.74509811
17.09890747	2.29411769
17.10289764	2.03921580
17.10693550	2.41176462
17.11116219	1.78431368
17.11513519	1.76470590
17.11513519	1.98039210
17.11937904	1.35294116
17.12335205	1.62745094
17.12741661	2.11764717
17.12741661	1.82352936
17.13155365	1.62745094
17.13582039	1.86274505
17.13992500	2.03921580
17.13992500	1.62745094
17.14403725	2.19607854
17.14785576	2.66666675
17.14785576	2.11764717
17.15203285	2.19607854
17.15652275	2.41176462
17.16104317	2.11764717
17.16104317	2.00000000
17.16465759	2.50980401
17.16913033	2.50980401
17.17254639	1.90196073
17.17254639	1.92156863
17.17737007	2.17647052
17.18074608	1.52941179
17.18489838	1.78431368
17.18489838	2.25490189
17.18889618	1.90196073
17.19300079	1.66666663
17.19300079	1.86274505
17.19706345	1.92156863
17.20112801	1.50980389
17.20527267	2.03921580
17.20527267	2.43137264
17.20934486	1.84313726
17.21366119	1.84313726
17.21778107	2.05882359
17.21778107	1.72549021
17.22185326	1.70588231
17.22590828	2.29411769
17.23007011	2.37254906
17.23007011	1.94117641
17.23456764	2.07843137
17.23841667	2.43137264
17.23841667	1.90196073
17.24237442	2.31372547
17.24714279	2.90196085
17.25051689	2.56862736
17.25051689	2.45098042
17.25455475	2.68627453
17.25864410	2.70588231
17.26269913	2.27450991
17.26269913	2.78431368
17.26674461	3.09803915
17.27080917	2.47058821
17.27486420	2.49019599
17.27486420	2.64705873
17.27914047	2.27450991
17.28310394	2.25490189
17.28310394	2.74509811
17.28901100	2.74509811
17.29123878	2.19607854
17.29562187	2.23529410
17.29562187	2.45098042
17.29944801	1.78431368
17.30411720	2.07843137
17.30791855	2.52941179
17.30791855	2.13725495
17.31170273	2.00000000
17.31587219	2.21568632
17.31993675	2.27450991
17.31993675	1.92156863
17.32401466	2.50980401
17.32810402	2.94117641
17.32810402	2.37254906
17.33225632	2.47058821
17.33632088	2.72549009
17.34061241	2.41176462
17.34061241	2.45098042
17.34466743	3.07843137
17.34863281	3.13725495
17.35317039	2.70588231
17.35317039	2.86274505
17.35744667	3.15686274
17.36137962	2.60784316
17.36512375	3.47058821
17.36929321	3.05882359
17.37359428	2.94117641
17.37359428	3.11764717
17.37730408	3.05882359
17.38137627	2.64705873
17.38547134	3.15686274
17.38547134	3.45098042
17.38979721	2.82352948
17.39386940	2.80392146
17.39780045	2.96078420
17.39780045	2.52941179
17.40188026	2.49019599
17.40612411	2.94117641
17.41014671	2.29411769
17.41469193	2.35294127
17.41914940	2.56862736
17.41914940	1.94117641
17.42257309	2.31372547
17.42679977	2.82352948
17.43085480	2.43137264
17.43085480	2.35294127
17.43470573	2.62745094
17.43876076	2.66666675
17.44283295	2.37254906
17.44283295	3.00000000
17.44691277	3.39215684
17.45127106	2.88235283
17.45517731	3.31372547
17.45942116	3.00000000
17.46343613	3.11764717
17.46343613	3.72549009
17.46751404	3.68627453
17.47192955	3.23529410
17.47587013	3.33333325
17.47587013	3.49019599
17.48015594	2.78431368
17.48426819	3.05882359
17.48883057	3.39215684
17.48883057	2.78431368
17.49266434	2.50980401
17.49672699	2.56862736
17.50024223	1.78431368
17.50431252	2.15686274
17.50835991	2.27450991
17.50835991	1.52941179
17.51267815	1.43137252
17.51675606	1.60784316
17.52088547	1.15686274
17.52088547	1.29411769
17.52498245	1.92156863
17.52901268	1.96078432
17.53310013	1.76470590
17.53310013	2.05882359
17.53794098	2.47058821
17.54211998	2.01960778
17.54556847	3.21568632
17.54975510	2.82352948
17.55377579	2.86274505
17.55377579	3.15686274
17.55796242	3.11764717
17.56166649	2.82352948
17.56578636	3.37254906
17.56578636	3.64705873
17.56977654	2.98039222
17.57413292	3.00000000
17.57811546	3.15686274
17.57811546	2.64705873
17.58208084	2.76470590
17.58624077	3.29411769
17.59036255	2.70588231
17.59460640	2.84313726
17.59861946	3.07843137
17.59861946	2.43137264
17.60261726	2.86274505
17.60665512	3.27450991
17.61074448	2.76470590
17.61074448	2.66666675
17.61479950	2.84313726
17.61888695	2.64705873
17.62303162	2.29411769
17.62303162	2.80392146
17.62710381	2.98039222
17.63122368	2.31372547
17.63535309	2.52941179
17.63936615	2.01960778
17.64348793	2.13725495
17.64348793	2.68627453
17.64756775	2.52941179
17.65170288	2.15686274
17.65579987	2.25490189
17.65579987	2.43137264
17.65985489	1.82352936
17.66400909	2.25490189
17.66812897	2.66666675
17.66812897	2.13725495
17.67220879	2.09803915
17.67629623	2.29411769
17.67629623	2.13725495
17.68040848	1.88235295
17.68451309	2.47058821
17.68870735	2.68627453
17.68870735	2.11764717
17.69263840	2.21568632
17.69684219	2.49019599
17.70092201	2.07843137
17.70092201	2.31372547
17.70496750	2.94117641
17.70905685	2.82352948
17.71318436	2.54901958
17.71318436	2.80392146
17.71732140	3.01960778
17.72155762	2.45098042
17.72155762	2.94117641
17.72603035	3.37254906
17.72966766	2.78431368
17.73392677	2.72549009
17.73392677	2.90196085
17.73822784	2.66666675
17.74212646	2.43137264
17.74641991	2.92156863
17.74641991	3.11764717
17.75012207	2.52941179
17.75409508	2.54901958
17.75823212	2.78431368
17.75823212	2.21568632
17.76231194	2.35294127
17.76652336	2.78431368
17.76652336	2.49019599
17.77075768	2.07843137
17.77485466	2.13725495
17.77961349	2.21568632
17.77961349	1.62745094
17.78322601	2.05882359
17.78752708	2.43137264
17.79108238	1.84313726
17.79108238	1.84313726
17.79596519	2.01960778
17.79927444	1.84313726
17.80340385	1.66666663
17.80340385	2.23529410
17.80781937	2.45098042
17.81153870	1.88235295
17.81153870	1.96078432
17.81566620	2.23529410
17.81966400	1.76470590
17.82390022	2.01960778
17.82390022	2.56862736
17.82785606	2.39215684
17.83201790	2.11764717
17.83624458	2.29411769
17.83624458	2.45098042
17.84042358	1.92156863
17.84438705	2.37254906
17.84844208	2.11764717
17.85250664	2.03921580
17.85733032	2.19607854
17.85733032	1.92156863
17.86072350	1.74509799
17.86494064	2.33333325
17.86916924	2.52941179
17.86916924	2.03921580
17.87299347	2.15686274
17.87709808	2.52941179
17.88115311	2.07843137
17.88115311	2.37254906
17.88524055	2.96078420
17.88955116	2.74509811
17.89364624	2.64705873
17.89775085	2.76470590
17.90182114	2.13725495
17.90182114	2.54901958
17.90609741	2.82352948
17.91000557	2.11764717
17.91398621	1.96078432
17.91398621	2.03921580
17.91841125	1.66666663
17.92210579	1.49019611
17.92712784	2.00000000
17.92712784	2.15686274
17.93053436	1.70588231
17.93442535	1.84313726
17.93848991	1.86274505
17.94256020	2.25490189
17.94686127	2.86274505
17.94686127	2.68627453
17.95105553	2.49019599
17.95483208	2.74509811
17.95901871	2.90196085
17.95901871	2.49019599
17.96302414	3.01960778
17.96725082	3.49019599
17.97135544	2.96078420
17.97135544	3.03921580
17.97561455	3.29411769
17.97953033	3.05882359
17.98370171	3.64705873
17.98772240	3.76470590
17.99225426	3.27450991
17.99225426	3.37254906
17.99588203	3.64705873
17.99997902	3.07843137
18.00402451	3.31372547
18.00402451	3.72549009
18.00810432	3.29411769
18.01223373	2.88235283
18.01634598	2.86274505
18.01634598	2.70588231
18.02062225	1.96078432
18.02480888	2.23529410
18.02916718	1.64705884
18.03289413	1.49019611
18.03692436	1.62745094
18.03692436	1.25490201
18.04136467	1.15686274
18.04582977	1.74509799
18.04936028	1.90196073
18.04936028	1.47058821
18.05411911	1.64705884
18.05743790	2.05882359
18.06145096	1.64705884
18.06145096	2.11764717
18.06553841	2.80392146
18.06960297	2.62745094
18.07365799	2.94117641
18.07802391	3.11764717
18.08183289	2.72549009
18.08183289	3.35294127
18.08619881	3.76470590
18.09028625	3.21568632
18.09420204	3.27450991
18.09420204	3.49019599
18.09846306	3.11764717
18.10236168	3.01960778
18.10648346	3.49019599
18.10648346	3.41176462
18.11073494	2.78431368
18.11467552	2.74509811
